 % time (yr) / global POP flux (mol yr-1) / global POP density (mol m-2 yr-1) / global POP DOM fraction
       0.500  0.1828346E+14  0.4964766E-01    0.661
       1.500  0.1727585E+14  0.4691156E-01    0.658
       2.500  0.1563217E+14  0.4244823E-01    0.658
       3.500  0.1460883E+14  0.3966943E-01    0.658
       4.500  0.1384778E+14  0.3760283E-01    0.659
       5.500  0.1319562E+14  0.3583194E-01    0.660
       6.500  0.1258361E+14  0.3417004E-01    0.661
       7.500  0.1205608E+14  0.3273758E-01    0.661
       8.500  0.1159521E+14  0.3148610E-01    0.662
       9.500  0.1115403E+14  0.3028812E-01    0.663
      10.500  0.1081903E+14  0.2937844E-01    0.664
      11.500  0.1050392E+14  0.2852279E-01    0.664
      12.500  0.1020403E+14  0.2770843E-01    0.665
      13.500  0.9941954E+13  0.2699679E-01    0.666
      14.500  0.9706573E+13  0.2635763E-01    0.666
      15.500  0.9497723E+13  0.2579051E-01    0.666
      16.500  0.9312349E+13  0.2528714E-01    0.667
      17.500  0.9145172E+13  0.2483318E-01    0.667
      18.500  0.8984635E+13  0.2439725E-01    0.668
      19.500  0.8835270E+13  0.2399166E-01    0.668
      21.500  0.8569810E+13  0.2327082E-01    0.669
      23.500  0.8341807E+13  0.2265169E-01    0.670
      25.500  0.8148362E+13  0.2212640E-01    0.670
      27.500  0.7978947E+13  0.2166636E-01    0.671
      29.500  0.7841868E+13  0.2129413E-01    0.671
      31.500  0.7711141E+13  0.2093915E-01    0.672
      33.500  0.7592018E+13  0.2061568E-01    0.673
      35.500  0.7493574E+13  0.2034836E-01    0.673
      37.500  0.7402322E+13  0.2010057E-01    0.673
      39.500  0.7326428E+13  0.1989448E-01    0.674
      41.500  0.7249076E+13  0.1968444E-01    0.674
      43.500  0.7177367E+13  0.1948972E-01    0.674
      45.500  0.7129012E+13  0.1935841E-01    0.674
      47.500  0.7070863E+13  0.1920051E-01    0.675
      49.500  0.7020806E+13  0.1906459E-01    0.675
      51.500  0.6981454E+13  0.1895773E-01    0.675
      53.500  0.6939945E+13  0.1884501E-01    0.675
      55.500  0.6899429E+13  0.1873499E-01    0.675
      57.500  0.6855108E+13  0.1861464E-01    0.675
      59.500  0.6816765E+13  0.1851052E-01    0.676
      61.500  0.6783462E+13  0.1842009E-01    0.676
      63.500  0.6779411E+13  0.1840909E-01    0.675
      65.500  0.6740016E+13  0.1830212E-01    0.675
      67.500  0.6698212E+13  0.1818860E-01    0.676
      69.500  0.6672837E+13  0.1811970E-01    0.676
      71.500  0.6663371E+13  0.1809399E-01    0.676
      73.500  0.6650086E+13  0.1805792E-01    0.675
      75.500  0.6617556E+13  0.1796959E-01    0.676
      77.500  0.6596762E+13  0.1791312E-01    0.676
      79.500  0.6578579E+13  0.1786374E-01    0.676
      81.500  0.6571419E+13  0.1784430E-01    0.676
      83.500  0.6557084E+13  0.1780538E-01    0.676
      85.500  0.6548757E+13  0.1778277E-01    0.676
      87.500  0.6520738E+13  0.1770668E-01    0.676
      89.500  0.6501353E+13  0.1765404E-01    0.677
      91.500  0.6492035E+13  0.1762874E-01    0.676
      93.500  0.6482586E+13  0.1760308E-01    0.676
      95.500  0.6463648E+13  0.1755166E-01    0.677
      97.500  0.6452076E+13  0.1752023E-01    0.677
      99.500  0.6436881E+13  0.1747897E-01    0.677
     104.500  0.6423484E+13  0.1744259E-01    0.677
     109.500  0.6394325E+13  0.1736342E-01    0.677
     114.500  0.6372509E+13  0.1730417E-01    0.677
     119.500  0.6370965E+13  0.1729998E-01    0.676
     124.500  0.6347303E+13  0.1723573E-01    0.677
     129.500  0.6343636E+13  0.1722577E-01    0.676
     134.500  0.6320746E+13  0.1716361E-01    0.677
     139.500  0.6312210E+13  0.1714044E-01    0.677
     144.500  0.6300536E+13  0.1710874E-01    0.677
     149.500  0.6294742E+13  0.1709300E-01    0.677
     154.500  0.6285904E+13  0.1706900E-01    0.677
     159.500  0.6278410E+13  0.1704866E-01    0.677
     164.500  0.6270579E+13  0.1702739E-01    0.677
     169.500  0.6266923E+13  0.1701746E-01    0.677
     174.500  0.6270126E+13  0.1702616E-01    0.677
     179.500  0.6266037E+13  0.1701506E-01    0.677
     184.500  0.6264069E+13  0.1700971E-01    0.677
     189.500  0.6262958E+13  0.1700670E-01    0.676
     194.500  0.6258280E+13  0.1699399E-01    0.677
     199.500  0.6258481E+13  0.1699454E-01    0.677
     204.500  0.6260941E+13  0.1700122E-01    0.677
     209.500  0.6261463E+13  0.1700263E-01    0.677
     214.500  0.6265299E+13  0.1701305E-01    0.676
     219.500  0.6265371E+13  0.1701325E-01    0.676
     224.500  0.6266271E+13  0.1701569E-01    0.676
     229.500  0.6270379E+13  0.1702685E-01    0.676
     234.500  0.6268743E+13  0.1702240E-01    0.676
     239.500  0.6272827E+13  0.1703349E-01    0.676
     244.500  0.6271600E+13  0.1703016E-01    0.676
     249.500  0.6270540E+13  0.1702728E-01    0.676
     254.500  0.6272591E+13  0.1703285E-01    0.676
     259.500  0.6277601E+13  0.1704646E-01    0.676
     264.500  0.6279940E+13  0.1705281E-01    0.676
     269.500  0.6284600E+13  0.1706546E-01    0.676
     274.500  0.6291015E+13  0.1708288E-01    0.676
     279.500  0.6295206E+13  0.1709426E-01    0.676
     284.500  0.6296182E+13  0.1709691E-01    0.676
     289.500  0.6300362E+13  0.1710826E-01    0.676
     294.500  0.6308075E+13  0.1712921E-01    0.676
     299.500  0.6316806E+13  0.1715292E-01    0.676
     304.500  0.6316706E+13  0.1715264E-01    0.676
     309.500  0.6319243E+13  0.1715953E-01    0.676
     314.500  0.6325014E+13  0.1717520E-01    0.675
     319.500  0.6328841E+13  0.1718560E-01    0.675
     324.500  0.6329240E+13  0.1718668E-01    0.675
     329.500  0.6328663E+13  0.1718511E-01    0.675
     334.500  0.6326374E+13  0.1717890E-01    0.676
     339.500  0.6327585E+13  0.1718219E-01    0.676
     344.500  0.6328949E+13  0.1718589E-01    0.675
     349.500  0.6328521E+13  0.1718473E-01    0.675
     354.500  0.6331992E+13  0.1719415E-01    0.675
     359.500  0.6333633E+13  0.1719861E-01    0.675
     364.500  0.6335292E+13  0.1720311E-01    0.675
     369.500  0.6333922E+13  0.1719939E-01    0.675
     374.500  0.6333354E+13  0.1719785E-01    0.675
     379.500  0.6331814E+13  0.1719367E-01    0.675
     384.500  0.6330981E+13  0.1719141E-01    0.675
     389.500  0.6330504E+13  0.1719011E-01    0.675
     394.500  0.6334778E+13  0.1720172E-01    0.675
     399.500  0.6335969E+13  0.1720495E-01    0.675
     404.500  0.6335204E+13  0.1720287E-01    0.675
     409.500  0.6333679E+13  0.1719873E-01    0.675
     414.500  0.6333363E+13  0.1719788E-01    0.675
     419.500  0.6336702E+13  0.1720694E-01    0.675
     424.500  0.6337448E+13  0.1720897E-01    0.675
     429.500  0.6336762E+13  0.1720711E-01    0.675
     434.500  0.6334338E+13  0.1720052E-01    0.676
     439.500  0.6333348E+13  0.1719783E-01    0.675
     444.500  0.6333457E+13  0.1719813E-01    0.676
     449.500  0.6332846E+13  0.1719647E-01    0.676
     454.500  0.6330252E+13  0.1718943E-01    0.676
     459.500  0.6331977E+13  0.1719411E-01    0.676
     464.500  0.6331381E+13  0.1719249E-01    0.676
     469.500  0.6330642E+13  0.1719049E-01    0.676
     474.500  0.6332655E+13  0.1719595E-01    0.676
     479.500  0.6330103E+13  0.1718902E-01    0.676
     484.500  0.6336989E+13  0.1720772E-01    0.676
     489.500  0.6333839E+13  0.1719917E-01    0.676
     494.500  0.6339051E+13  0.1721332E-01    0.676
     499.500  0.6334394E+13  0.1720068E-01    0.676
     504.500  0.6342963E+13  0.1722394E-01    0.676
     509.500  0.6336334E+13  0.1720594E-01    0.676
     514.500  0.6342309E+13  0.1722217E-01    0.676
     519.500  0.6338325E+13  0.1721135E-01    0.676
     524.500  0.6347165E+13  0.1723535E-01    0.676
     529.500  0.6340502E+13  0.1721726E-01    0.676
     534.500  0.6345421E+13  0.1723062E-01    0.676
     539.500  0.6341022E+13  0.1721867E-01    0.676
     544.500  0.6348749E+13  0.1723966E-01    0.676
     549.500  0.6343903E+13  0.1722650E-01    0.676
     554.500  0.6352696E+13  0.1725037E-01    0.676
     559.500  0.6353284E+13  0.1725197E-01    0.676
     564.500  0.6357263E+13  0.1726277E-01    0.676
     569.500  0.6352226E+13  0.1724910E-01    0.676
     574.500  0.6355076E+13  0.1725683E-01    0.676
     579.500  0.6358655E+13  0.1726655E-01    0.675
     584.500  0.6362269E+13  0.1727637E-01    0.675
     589.500  0.6357022E+13  0.1726212E-01    0.675
     594.500  0.6363188E+13  0.1727886E-01    0.675
     599.500  0.6364309E+13  0.1728191E-01    0.675
     604.500  0.6365252E+13  0.1728447E-01    0.675
     609.500  0.6364055E+13  0.1728122E-01    0.676
     614.500  0.6366939E+13  0.1728905E-01    0.675
     619.500  0.6368399E+13  0.1729301E-01    0.675
     624.500  0.6372055E+13  0.1730294E-01    0.675
     629.500  0.6373335E+13  0.1730642E-01    0.675
     634.500  0.6375947E+13  0.1731351E-01    0.675
     639.500  0.6374118E+13  0.1730854E-01    0.675
     644.500  0.6376096E+13  0.1731391E-01    0.675
     649.500  0.6377116E+13  0.1731669E-01    0.675
     654.500  0.6378569E+13  0.1732063E-01    0.675
     659.500  0.6378632E+13  0.1732080E-01    0.676
     664.500  0.6378308E+13  0.1731992E-01    0.676
     669.500  0.6378956E+13  0.1732168E-01    0.676
     674.500  0.6380750E+13  0.1732655E-01    0.676
     679.500  0.6386297E+13  0.1734161E-01    0.675
     684.500  0.6393434E+13  0.1736100E-01    0.675
     689.500  0.6390559E+13  0.1735319E-01    0.675
     694.500  0.6397341E+13  0.1737161E-01    0.675
     699.500  0.6392077E+13  0.1735731E-01    0.675
     704.500  0.6402765E+13  0.1738633E-01    0.675
     709.500  0.6396522E+13  0.1736938E-01    0.675
     714.500  0.6405357E+13  0.1739337E-01    0.675
     719.500  0.6400774E+13  0.1738093E-01    0.675
     724.500  0.6403759E+13  0.1738903E-01    0.675
     729.500  0.6405394E+13  0.1739347E-01    0.675
     734.500  0.6407433E+13  0.1739901E-01    0.675
     739.500  0.6409626E+13  0.1740496E-01    0.675
     744.500  0.6409292E+13  0.1740406E-01    0.675
     749.500  0.6410521E+13  0.1740739E-01    0.675
     754.500  0.6410607E+13  0.1740763E-01    0.675
     759.500  0.6411958E+13  0.1741130E-01    0.675
     764.500  0.6414751E+13  0.1741888E-01    0.675
     769.500  0.6416047E+13  0.1742240E-01    0.675
     774.500  0.6418573E+13  0.1742926E-01    0.675
     779.500  0.6420426E+13  0.1743429E-01    0.675
     784.500  0.6419971E+13  0.1743305E-01    0.675
     789.500  0.6417883E+13  0.1742738E-01    0.675
     794.500  0.6424179E+13  0.1744448E-01    0.675
     799.500  0.6418062E+13  0.1742787E-01    0.675
     804.500  0.6426704E+13  0.1745134E-01    0.675
     809.500  0.6418256E+13  0.1742840E-01    0.675
     814.500  0.6423596E+13  0.1744290E-01    0.675
     819.500  0.6425376E+13  0.1744773E-01    0.675
     824.500  0.6426081E+13  0.1744965E-01    0.675
     829.500  0.6427202E+13  0.1745269E-01    0.675
     834.500  0.6428938E+13  0.1745740E-01    0.675
     839.500  0.6433659E+13  0.1747022E-01    0.675
     844.500  0.6433504E+13  0.1746980E-01    0.675
     849.500  0.6435474E+13  0.1747515E-01    0.675
     854.500  0.6436913E+13  0.1747906E-01    0.675
     859.500  0.6436536E+13  0.1747804E-01    0.675
     864.500  0.6435535E+13  0.1747532E-01    0.675
     869.500  0.6437298E+13  0.1748011E-01    0.675
     874.500  0.6439011E+13  0.1748476E-01    0.675
     879.500  0.6439650E+13  0.1748649E-01    0.675
     884.500  0.6442410E+13  0.1749399E-01    0.675
     889.500  0.6442600E+13  0.1749450E-01    0.675
     894.500  0.6444187E+13  0.1749881E-01    0.675
     899.500  0.6446760E+13  0.1750580E-01    0.675
     904.500  0.6446059E+13  0.1750389E-01    0.675
     909.500  0.6451451E+13  0.1751854E-01    0.675
     914.500  0.6449447E+13  0.1751309E-01    0.675
     919.500  0.6451596E+13  0.1751893E-01    0.675
     924.500  0.6448952E+13  0.1751175E-01    0.675
     929.500  0.6453344E+13  0.1752368E-01    0.675
     934.500  0.6456759E+13  0.1753295E-01    0.675
     939.500  0.6457546E+13  0.1753509E-01    0.675
     944.500  0.6458552E+13  0.1753782E-01    0.675
     949.500  0.6459490E+13  0.1754037E-01    0.675
     954.500  0.6463280E+13  0.1755066E-01    0.675
     959.500  0.6465448E+13  0.1755654E-01    0.675
     964.500  0.6466406E+13  0.1755915E-01    0.675
     969.500  0.6464981E+13  0.1755528E-01    0.675
     974.500  0.6468580E+13  0.1756505E-01    0.675
     979.500  0.6470202E+13  0.1756945E-01    0.675
     984.500  0.6471644E+13  0.1757337E-01    0.675
     989.500  0.6470610E+13  0.1757056E-01    0.675
     994.500  0.6478254E+13  0.1759132E-01    0.675
     999.500  0.6472861E+13  0.1757667E-01    0.675
    1019.500  0.6481694E+13  0.1760066E-01    0.675
    1039.500  0.6488256E+13  0.1761848E-01    0.675
    1059.500  0.6492476E+13  0.1762994E-01    0.675
    1079.500  0.6499134E+13  0.1764802E-01    0.675
    1099.500  0.6505366E+13  0.1766494E-01    0.675
    1119.500  0.6504034E+13  0.1766132E-01    0.675
    1139.500  0.6508914E+13  0.1767457E-01    0.675
    1159.500  0.6517444E+13  0.1769774E-01    0.675
    1179.500  0.6521301E+13  0.1770821E-01    0.675
    1199.500  0.6535142E+13  0.1774579E-01    0.675
    1219.500  0.6539235E+13  0.1775691E-01    0.675
    1239.500  0.6544292E+13  0.1777064E-01    0.675
    1259.500  0.6541236E+13  0.1776234E-01    0.675
    1279.500  0.6545636E+13  0.1777429E-01    0.675
    1299.500  0.6551688E+13  0.1779073E-01    0.674
    1319.500  0.6551923E+13  0.1779136E-01    0.674
    1339.500  0.6567221E+13  0.1783290E-01    0.675
    1359.500  0.6567538E+13  0.1783376E-01    0.674
    1379.500  0.6568126E+13  0.1783536E-01    0.674
    1399.500  0.6582158E+13  0.1787346E-01    0.674
    1419.500  0.6583527E+13  0.1787718E-01    0.674
    1439.500  0.6581274E+13  0.1787106E-01    0.674
    1459.500  0.6589989E+13  0.1789473E-01    0.674
    1479.500  0.6592608E+13  0.1790184E-01    0.674
    1499.500  0.6604027E+13  0.1793285E-01    0.674
    1519.500  0.6602677E+13  0.1792918E-01    0.674
    1539.500  0.6603349E+13  0.1793101E-01    0.674
    1559.500  0.6604348E+13  0.1793372E-01    0.674
    1579.500  0.6610422E+13  0.1795021E-01    0.674
    1599.500  0.6614450E+13  0.1796115E-01    0.674
    1619.500  0.6615045E+13  0.1796277E-01    0.674
    1639.500  0.6616458E+13  0.1796660E-01    0.674
    1659.500  0.6624703E+13  0.1798899E-01    0.674
    1679.500  0.6630217E+13  0.1800397E-01    0.674
    1699.500  0.6631795E+13  0.1800825E-01    0.674
    1719.500  0.6632545E+13  0.1801029E-01    0.674
    1739.500  0.6636589E+13  0.1802127E-01    0.674
    1759.500  0.6640444E+13  0.1803174E-01    0.674
    1779.500  0.6642724E+13  0.1803793E-01    0.674
    1799.500  0.6645157E+13  0.1804453E-01    0.674
    1819.500  0.6647434E+13  0.1805072E-01    0.674
    1839.500  0.6649737E+13  0.1805697E-01    0.674
    1859.500  0.6652092E+13  0.1806337E-01    0.674
    1879.500  0.6654114E+13  0.1806886E-01    0.674
    1899.500  0.6656259E+13  0.1807468E-01    0.674
    1919.500  0.6658571E+13  0.1808096E-01    0.674
    1939.500  0.6660459E+13  0.1808609E-01    0.674
    1959.500  0.6661641E+13  0.1808930E-01    0.674
    1979.500  0.6662716E+13  0.1809221E-01    0.674
    1999.500  0.6665479E+13  0.1809972E-01    0.674
    2049.500  0.6670169E+13  0.1811245E-01    0.674
    2099.500  0.6674532E+13  0.1812430E-01    0.674
    2149.500  0.6677018E+13  0.1813105E-01    0.674
    2199.500  0.6681116E+13  0.1814218E-01    0.674
    2249.500  0.6684920E+13  0.1815251E-01    0.674
    2299.500  0.6688488E+13  0.1816220E-01    0.674
    2349.500  0.6691729E+13  0.1817100E-01    0.674
    2399.500  0.6694804E+13  0.1817935E-01    0.674
    2449.500  0.6697939E+13  0.1818786E-01    0.674
    2499.500  0.6700696E+13  0.1819535E-01    0.674
    2549.500  0.6703032E+13  0.1820169E-01    0.674
    2599.500  0.6705695E+13  0.1820892E-01    0.674
    2649.500  0.6708799E+13  0.1821735E-01    0.674
    2699.500  0.6711725E+13  0.1822530E-01    0.674
    2749.500  0.6715413E+13  0.1823531E-01    0.674
    2799.500  0.6718174E+13  0.1824281E-01    0.674
    2849.500  0.6720413E+13  0.1824889E-01    0.674
    2899.500  0.6723064E+13  0.1825609E-01    0.674
    2949.500  0.6725488E+13  0.1826267E-01    0.674
    2999.500  0.6727948E+13  0.1826935E-01    0.674
    3049.500  0.6729974E+13  0.1827485E-01    0.674
    3099.500  0.6732310E+13  0.1828119E-01    0.674
    3149.500  0.6734434E+13  0.1828696E-01    0.674
    3199.500  0.6736573E+13  0.1829277E-01    0.674
    3249.500  0.6738981E+13  0.1829931E-01    0.674
    3299.500  0.6741041E+13  0.1830490E-01    0.674
    3349.500  0.6743270E+13  0.1831095E-01    0.674
    3399.500  0.6745240E+13  0.1831630E-01    0.674
    3449.500  0.6747346E+13  0.1832202E-01    0.674
    3499.500  0.6749384E+13  0.1832756E-01    0.673
    3549.500  0.6751604E+13  0.1833358E-01    0.673
    3599.500  0.6753777E+13  0.1833948E-01    0.673
    3649.500  0.6755829E+13  0.1834506E-01    0.673
    3699.500  0.6758018E+13  0.1835100E-01    0.673
    3749.500  0.6760198E+13  0.1835692E-01    0.673
    3799.500  0.6762309E+13  0.1836265E-01    0.673
    3849.500  0.6764661E+13  0.1836904E-01    0.673
    3899.500  0.6766761E+13  0.1837474E-01    0.673
    3949.500  0.6768944E+13  0.1838067E-01    0.673
    3999.500  0.6771020E+13  0.1838631E-01    0.673
    4049.500  0.6773069E+13  0.1839187E-01    0.673
    4099.500  0.6775189E+13  0.1839763E-01    0.673
    4149.500  0.6777254E+13  0.1840324E-01    0.673
    4199.500  0.6779311E+13  0.1840882E-01    0.673
    4249.500  0.6781362E+13  0.1841439E-01    0.673
    4299.500  0.6783382E+13  0.1841988E-01    0.673
    4349.500  0.6785352E+13  0.1842522E-01    0.673
    4399.500  0.6787265E+13  0.1843042E-01    0.673
    4449.500  0.6789202E+13  0.1843568E-01    0.673
    4499.500  0.6791097E+13  0.1844083E-01    0.673
    4549.500  0.6792953E+13  0.1844587E-01    0.673
    4599.500  0.6794819E+13  0.1845093E-01    0.673
    4649.500  0.6796514E+13  0.1845554E-01    0.673
    4699.500  0.6798177E+13  0.1846005E-01    0.673
    4749.500  0.6799771E+13  0.1846438E-01    0.673
    4799.500  0.6801324E+13  0.1846860E-01    0.673
    4849.500  0.6802825E+13  0.1847267E-01    0.673
    4899.500  0.6804243E+13  0.1847652E-01    0.673
    4949.500  0.6805580E+13  0.1848015E-01    0.673
    4999.500  0.6806852E+13  0.1848361E-01    0.673
    5049.500  0.6808057E+13  0.1848688E-01    0.673
    5099.500  0.6809191E+13  0.1848996E-01    0.673
    5149.500  0.6810273E+13  0.1849290E-01    0.673
    5199.500  0.6811291E+13  0.1849566E-01    0.673
    5249.500  0.6812236E+13  0.1849823E-01    0.673
    5299.500  0.6813101E+13  0.1850058E-01    0.673
    5349.500  0.6813936E+13  0.1850284E-01    0.673
    5399.500  0.6814701E+13  0.1850492E-01    0.673
    5449.500  0.6815415E+13  0.1850686E-01    0.673
    5499.500  0.6816071E+13  0.1850864E-01    0.673
    5549.500  0.6816683E+13  0.1851030E-01    0.673
    5599.500  0.6817238E+13  0.1851181E-01    0.673
    5649.500  0.6817751E+13  0.1851320E-01    0.673
    5699.500  0.6818227E+13  0.1851449E-01    0.673
    5749.500  0.6818661E+13  0.1851567E-01    0.673
    5799.500  0.6819052E+13  0.1851674E-01    0.673
    5849.500  0.6819413E+13  0.1851771E-01    0.673
    5899.500  0.6819733E+13  0.1851858E-01    0.673
    5949.500  0.6820022E+13  0.1851937E-01    0.673
    5999.500  0.6820281E+13  0.1852007E-01    0.673
    6049.500  0.6820508E+13  0.1852069E-01    0.673
    6099.500  0.6820727E+13  0.1852128E-01    0.673
    6149.500  0.6820910E+13  0.1852178E-01    0.673
    6199.500  0.6821076E+13  0.1852223E-01    0.673
    6249.500  0.6821232E+13  0.1852266E-01    0.673
    6299.500  0.6821359E+13  0.1852300E-01    0.673
    6349.500  0.6821470E+13  0.1852330E-01    0.673
    6399.500  0.6821561E+13  0.1852355E-01    0.673
    6449.500  0.6821650E+13  0.1852379E-01    0.673
    6499.500  0.6821724E+13  0.1852399E-01    0.673
    6549.500  0.6821780E+13  0.1852414E-01    0.673
    6599.500  0.6821848E+13  0.1852433E-01    0.673
