 % time (yr) / global POP flux (mol yr-1) / global POP density (mol m-2 yr-1)
       0.500  0.1503452E+13  0.4082536E-02
       1.500  0.1507715E+13  0.4094112E-02
       2.500  0.1369262E+13  0.3718152E-02
       3.500  0.1284367E+13  0.3487623E-02
       4.500  0.1218116E+13  0.3307721E-02
       5.500  0.1169461E+13  0.3175603E-02
       6.500  0.1116836E+13  0.3032704E-02
       7.500  0.1078009E+13  0.2927270E-02
       8.500  0.1038687E+13  0.2820494E-02
       9.500  0.1004271E+13  0.2727039E-02
      10.500  0.9771979E+12  0.2653524E-02
      11.500  0.9524106E+12  0.2586215E-02
      12.500  0.9297466E+12  0.2524672E-02
      13.500  0.9084959E+12  0.2466967E-02
      14.500  0.8891246E+12  0.2414366E-02
      15.500  0.8727918E+12  0.2370015E-02
      16.500  0.8575795E+12  0.2328707E-02
      17.500  0.8449339E+12  0.2294368E-02
      18.500  0.8321470E+12  0.2259646E-02
      19.500  0.8203005E+12  0.2227478E-02
      21.500  0.7995914E+12  0.2171244E-02
      23.500  0.7820396E+12  0.2123583E-02
      25.500  0.7675548E+12  0.2084250E-02
      27.500  0.7551631E+12  0.2050601E-02
      29.500  0.7442564E+12  0.2020985E-02
      31.500  0.7339662E+12  0.1993042E-02
      33.500  0.7240992E+12  0.1966249E-02
      35.500  0.7167849E+12  0.1946387E-02
      37.500  0.7084368E+12  0.1923719E-02
      39.500  0.7015639E+12  0.1905056E-02
      41.500  0.6955825E+12  0.1888814E-02
      43.500  0.6880114E+12  0.1868254E-02
      45.500  0.6841328E+12  0.1857723E-02
      47.500  0.6788469E+12  0.1843369E-02
      49.500  0.6739656E+12  0.1830114E-02
      51.500  0.6698047E+12  0.1818815E-02
      53.500  0.6660496E+12  0.1808619E-02
      55.500  0.6614526E+12  0.1796136E-02
      57.500  0.6582254E+12  0.1787372E-02
      59.500  0.6548894E+12  0.1778314E-02
      61.500  0.6520118E+12  0.1770500E-02
      63.500  0.6505981E+12  0.1766661E-02
      65.500  0.6475417E+12  0.1758362E-02
      67.500  0.6446313E+12  0.1750459E-02
      69.500  0.6417743E+12  0.1742700E-02
      71.500  0.6405856E+12  0.1739473E-02
      73.500  0.6391300E+12  0.1735520E-02
      75.500  0.6368451E+12  0.1729315E-02
      77.500  0.6345882E+12  0.1723187E-02
      79.500  0.6330829E+12  0.1719100E-02
      81.500  0.6315323E+12  0.1714889E-02
      83.500  0.6295363E+12  0.1709469E-02
      85.500  0.6280705E+12  0.1705489E-02
      87.500  0.6262345E+12  0.1700503E-02
      89.500  0.6246129E+12  0.1696100E-02
      91.500  0.6232991E+12  0.1692532E-02
      93.500  0.6222134E+12  0.1689584E-02
      95.500  0.6202280E+12  0.1684193E-02
      97.500  0.6197541E+12  0.1682906E-02
      99.500  0.6183255E+12  0.1679027E-02
     104.500  0.6152526E+12  0.1670682E-02
     109.500  0.6118958E+12  0.1661567E-02
     114.500  0.6101445E+12  0.1656812E-02
     119.500  0.6090430E+12  0.1653820E-02
     124.500  0.6064607E+12  0.1646808E-02
     129.500  0.6054866E+12  0.1644163E-02
     134.500  0.6037911E+12  0.1639559E-02
     139.500  0.6028326E+12  0.1636956E-02
     144.500  0.6019482E+12  0.1634555E-02
     149.500  0.6008244E+12  0.1631503E-02
     154.500  0.6000044E+12  0.1629277E-02
     159.500  0.5995092E+12  0.1627932E-02
     164.500  0.5989578E+12  0.1626435E-02
     169.500  0.5980178E+12  0.1623882E-02
     174.500  0.5981711E+12  0.1624299E-02
     179.500  0.5974812E+12  0.1622425E-02
     184.500  0.5973563E+12  0.1622086E-02
     189.500  0.5966374E+12  0.1620134E-02
     194.500  0.5965504E+12  0.1619898E-02
     199.500  0.5958522E+12  0.1618002E-02
     204.500  0.5956826E+12  0.1617541E-02
     209.500  0.5957606E+12  0.1617753E-02
     214.500  0.5953528E+12  0.1616646E-02
     219.500  0.5953019E+12  0.1616508E-02
     224.500  0.5952349E+12  0.1616325E-02
     229.500  0.5953935E+12  0.1616756E-02
     234.500  0.5955640E+12  0.1617219E-02
     239.500  0.5957540E+12  0.1617735E-02
     244.500  0.5961609E+12  0.1618840E-02
     249.500  0.5957243E+12  0.1617654E-02
     254.500  0.5960832E+12  0.1618629E-02
     259.500  0.5962865E+12  0.1619181E-02
     264.500  0.5967786E+12  0.1620517E-02
     269.500  0.5973016E+12  0.1621937E-02
     274.500  0.5979795E+12  0.1623778E-02
     279.500  0.5987710E+12  0.1625928E-02
     284.500  0.5988812E+12  0.1626227E-02
     289.500  0.5993588E+12  0.1627524E-02
     294.500  0.5998362E+12  0.1628820E-02
     299.500  0.6003985E+12  0.1630347E-02
     304.500  0.6006052E+12  0.1630908E-02
     309.500  0.6003936E+12  0.1630334E-02
     314.500  0.6002723E+12  0.1630004E-02
     319.500  0.6006720E+12  0.1631090E-02
     324.500  0.5997656E+12  0.1628628E-02
     329.500  0.5999987E+12  0.1629261E-02
     334.500  0.5987662E+12  0.1625914E-02
     339.500  0.5985722E+12  0.1625388E-02
     344.500  0.5979876E+12  0.1623800E-02
     349.500  0.5978348E+12  0.1623385E-02
     354.500  0.5974358E+12  0.1622302E-02
     359.500  0.5975618E+12  0.1622644E-02
     364.500  0.5971355E+12  0.1621487E-02
     369.500  0.5964818E+12  0.1619711E-02
     374.500  0.5955262E+12  0.1617117E-02
     379.500  0.5955146E+12  0.1617085E-02
     384.500  0.5947103E+12  0.1614901E-02
     389.500  0.5939626E+12  0.1612870E-02
     394.500  0.5939931E+12  0.1612953E-02
     399.500  0.5933552E+12  0.1611221E-02
     404.500  0.5929814E+12  0.1610206E-02
     409.500  0.5926121E+12  0.1609204E-02
     414.500  0.5913428E+12  0.1605757E-02
     419.500  0.5916013E+12  0.1606459E-02
     424.500  0.5913835E+12  0.1605867E-02
     429.500  0.5907083E+12  0.1604034E-02
     434.500  0.5902530E+12  0.1602797E-02
     439.500  0.5899152E+12  0.1601880E-02
     444.500  0.5891909E+12  0.1599913E-02
     449.500  0.5888054E+12  0.1598867E-02
     454.500  0.5882866E+12  0.1597458E-02
     459.500  0.5880397E+12  0.1596787E-02
     464.500  0.5877680E+12  0.1596050E-02
     469.500  0.5871166E+12  0.1594281E-02
     474.500  0.5876011E+12  0.1595596E-02
     479.500  0.5866193E+12  0.1592930E-02
     484.500  0.5871307E+12  0.1594319E-02
     489.500  0.5862667E+12  0.1591973E-02
     494.500  0.5868834E+12  0.1593647E-02
     499.500  0.5860672E+12  0.1591431E-02
     504.500  0.5864536E+12  0.1592480E-02
     509.500  0.5856985E+12  0.1590430E-02
     514.500  0.5859557E+12  0.1591128E-02
     519.500  0.5855156E+12  0.1589933E-02
     524.500  0.5859104E+12  0.1591005E-02
     529.500  0.5854829E+12  0.1589844E-02
     534.500  0.5856084E+12  0.1590185E-02
     539.500  0.5851534E+12  0.1588950E-02
     544.500  0.5855062E+12  0.1589908E-02
     549.500  0.5851022E+12  0.1588811E-02
     554.500  0.5854259E+12  0.1589690E-02
     559.500  0.5854492E+12  0.1589753E-02
     564.500  0.5854758E+12  0.1589825E-02
     569.500  0.5852057E+12  0.1589092E-02
     574.500  0.5851102E+12  0.1588833E-02
     579.500  0.5854284E+12  0.1589696E-02
     584.500  0.5856460E+12  0.1590287E-02
     589.500  0.5852471E+12  0.1589204E-02
     594.500  0.5855881E+12  0.1590130E-02
     599.500  0.5854965E+12  0.1589881E-02
     604.500  0.5855901E+12  0.1590136E-02
     609.500  0.5853639E+12  0.1589521E-02
     614.500  0.5855455E+12  0.1590014E-02
     619.500  0.5856980E+12  0.1590428E-02
     624.500  0.5856664E+12  0.1590343E-02
     629.500  0.5859721E+12  0.1591173E-02
     634.500  0.5862008E+12  0.1591794E-02
     639.500  0.5861604E+12  0.1591684E-02
     644.500  0.5859653E+12  0.1591155E-02
     649.500  0.5860232E+12  0.1591312E-02
     654.500  0.5863520E+12  0.1592204E-02
     659.500  0.5862777E+12  0.1592003E-02
     664.500  0.5863011E+12  0.1592066E-02
     669.500  0.5863499E+12  0.1592199E-02
     674.500  0.5863064E+12  0.1592081E-02
     679.500  0.5867970E+12  0.1593413E-02
     684.500  0.5874744E+12  0.1595252E-02
     689.500  0.5865295E+12  0.1592687E-02
     694.500  0.5873379E+12  0.1594882E-02
     699.500  0.5869456E+12  0.1593816E-02
     704.500  0.5878867E+12  0.1596372E-02
     709.500  0.5872857E+12  0.1594740E-02
     714.500  0.5878948E+12  0.1596394E-02
     719.500  0.5877159E+12  0.1595908E-02
     724.500  0.5878394E+12  0.1596243E-02
     729.500  0.5880044E+12  0.1596692E-02
     734.500  0.5880690E+12  0.1596867E-02
     739.500  0.5881749E+12  0.1597154E-02
     744.500  0.5882352E+12  0.1597318E-02
     749.500  0.5883288E+12  0.1597572E-02
     754.500  0.5883788E+12  0.1597708E-02
     759.500  0.5885118E+12  0.1598069E-02
     764.500  0.5886862E+12  0.1598543E-02
     769.500  0.5888251E+12  0.1598920E-02
     774.500  0.5891070E+12  0.1599686E-02
     779.500  0.5891768E+12  0.1599875E-02
     784.500  0.5891533E+12  0.1599811E-02
     789.500  0.5890801E+12  0.1599612E-02
     794.500  0.5895316E+12  0.1600839E-02
     799.500  0.5891856E+12  0.1599899E-02
     804.500  0.5897837E+12  0.1601523E-02
     809.500  0.5892824E+12  0.1600162E-02
     814.500  0.5895169E+12  0.1600799E-02
     819.500  0.5900363E+12  0.1602209E-02
     824.500  0.5899364E+12  0.1601938E-02
     829.500  0.5899692E+12  0.1602027E-02
     834.500  0.5903626E+12  0.1603095E-02
     839.500  0.5903687E+12  0.1603112E-02
     844.500  0.5906255E+12  0.1603809E-02
     849.500  0.5907384E+12  0.1604116E-02
     854.500  0.5908853E+12  0.1604514E-02
     859.500  0.5908686E+12  0.1604469E-02
     864.500  0.5908562E+12  0.1604435E-02
     869.500  0.5909928E+12  0.1604806E-02
     874.500  0.5911446E+12  0.1605219E-02
     879.500  0.5911559E+12  0.1605249E-02
     884.500  0.5915424E+12  0.1606299E-02
     889.500  0.5916310E+12  0.1606539E-02
     894.500  0.5917073E+12  0.1606747E-02
     899.500  0.5918974E+12  0.1607263E-02
     904.500  0.5921134E+12  0.1607849E-02
     909.500  0.5921457E+12  0.1607937E-02
     914.500  0.5922553E+12  0.1608235E-02
     919.500  0.5924886E+12  0.1608868E-02
     924.500  0.5924456E+12  0.1608751E-02
     929.500  0.5926952E+12  0.1609429E-02
     934.500  0.5932934E+12  0.1611054E-02
     939.500  0.5933032E+12  0.1611080E-02
     944.500  0.5932606E+12  0.1610964E-02
     949.500  0.5932890E+12  0.1611042E-02
     954.500  0.5932407E+12  0.1610910E-02
     959.500  0.5938540E+12  0.1612576E-02
     964.500  0.5939478E+12  0.1612830E-02
     969.500  0.5939643E+12  0.1612875E-02
     974.500  0.5939466E+12  0.1612827E-02
     979.500  0.5944169E+12  0.1614104E-02
     984.500  0.5943466E+12  0.1613913E-02
     989.500  0.5948014E+12  0.1615148E-02
     994.500  0.5948955E+12  0.1615404E-02
     999.500  0.5948717E+12  0.1615339E-02
    1019.500  0.5955174E+12  0.1617092E-02
    1039.500  0.5962863E+12  0.1619181E-02
    1059.500  0.5967567E+12  0.1620458E-02
    1079.500  0.5974376E+12  0.1622307E-02
    1099.500  0.5980572E+12  0.1623989E-02
    1119.500  0.5984145E+12  0.1624959E-02
    1139.500  0.5988203E+12  0.1626061E-02
    1159.500  0.5992782E+12  0.1627305E-02
    1179.500  0.5998185E+12  0.1628772E-02
    1199.500  0.6012015E+12  0.1632527E-02
    1219.500  0.6019225E+12  0.1634485E-02
    1239.500  0.6022047E+12  0.1635252E-02
    1259.500  0.6022832E+12  0.1635465E-02
    1279.500  0.6027959E+12  0.1636857E-02
    1299.500  0.6033751E+12  0.1638430E-02
    1319.500  0.6035962E+12  0.1639030E-02
    1339.500  0.6046832E+12  0.1641982E-02
    1359.500  0.6052096E+12  0.1643411E-02
    1379.500  0.6059088E+12  0.1645310E-02
    1399.500  0.6066915E+12  0.1647435E-02
    1419.500  0.6067904E+12  0.1647704E-02
    1439.500  0.6067976E+12  0.1647723E-02
    1459.500  0.6075587E+12  0.1649790E-02
    1479.500  0.6078160E+12  0.1650489E-02
    1499.500  0.6086281E+12  0.1652694E-02
    1519.500  0.6087980E+12  0.1653155E-02
    1539.500  0.6088960E+12  0.1653421E-02
    1559.500  0.6091702E+12  0.1654166E-02
    1579.500  0.6099245E+12  0.1656214E-02
    1599.500  0.6103514E+12  0.1657373E-02
    1619.500  0.6105794E+12  0.1657993E-02
    1639.500  0.6108605E+12  0.1658756E-02
    1659.500  0.6115169E+12  0.1660538E-02
    1679.500  0.6120315E+12  0.1661936E-02
    1699.500  0.6123268E+12  0.1662737E-02
    1719.500  0.6125685E+12  0.1663394E-02
    1739.500  0.6131322E+12  0.1664925E-02
    1759.500  0.6133480E+12  0.1665511E-02
    1779.500  0.6136657E+12  0.1666373E-02
    1799.500  0.6139304E+12  0.1667092E-02
    1819.500  0.6142130E+12  0.1667859E-02
    1839.500  0.6145365E+12  0.1668738E-02
    1859.500  0.6148255E+12  0.1669523E-02
    1879.500  0.6150953E+12  0.1670255E-02
    1899.500  0.6153535E+12  0.1670956E-02
    1919.500  0.6156552E+12  0.1671776E-02
    1939.500  0.6158974E+12  0.1672433E-02
    1959.500  0.6161020E+12  0.1672989E-02
    1979.500  0.6163102E+12  0.1673554E-02
    1999.500  0.6167590E+12  0.1674773E-02
    2049.500  0.6173429E+12  0.1676359E-02
    2099.500  0.6178841E+12  0.1677828E-02
    2149.500  0.6181842E+12  0.1678643E-02
    2199.500  0.6187011E+12  0.1680047E-02
    2249.500  0.6191794E+12  0.1681345E-02
    2299.500  0.6196361E+12  0.1682585E-02
    2349.500  0.6200579E+12  0.1683731E-02
    2399.500  0.6204678E+12  0.1684844E-02
    2449.500  0.6208612E+12  0.1685912E-02
    2499.500  0.6212029E+12  0.1686840E-02
    2549.500  0.6215159E+12  0.1687690E-02
    2599.500  0.6218438E+12  0.1688580E-02
    2649.500  0.6221744E+12  0.1689478E-02
    2699.500  0.6224414E+12  0.1690203E-02
    2749.500  0.6228347E+12  0.1691271E-02
    2799.500  0.6231204E+12  0.1692047E-02
    2849.500  0.6233818E+12  0.1692757E-02
    2899.500  0.6236565E+12  0.1693503E-02
    2949.500  0.6239138E+12  0.1694201E-02
    2999.500  0.6241735E+12  0.1694907E-02
    3049.500  0.6243859E+12  0.1695483E-02
    3099.500  0.6246182E+12  0.1696114E-02
    3149.500  0.6248217E+12  0.1696667E-02
    3199.500  0.6250161E+12  0.1697194E-02
    3249.500  0.6252099E+12  0.1697721E-02
    3299.500  0.6253834E+12  0.1698192E-02
    3349.500  0.6255575E+12  0.1698665E-02
    3399.500  0.6257233E+12  0.1699115E-02
    3449.500  0.6258909E+12  0.1699570E-02
    3499.500  0.6260485E+12  0.1699998E-02
    3549.500  0.6262281E+12  0.1700486E-02
    3599.500  0.6264032E+12  0.1700961E-02
    3649.500  0.6265682E+12  0.1701409E-02
    3699.500  0.6267454E+12  0.1701890E-02
    3749.500  0.6269271E+12  0.1702384E-02
    3799.500  0.6271050E+12  0.1702867E-02
    3849.500  0.6272844E+12  0.1703354E-02
    3899.500  0.6274571E+12  0.1703823E-02
    3949.500  0.6276500E+12  0.1704347E-02
    3999.500  0.6278323E+12  0.1704842E-02
    4049.500  0.6280047E+12  0.1705310E-02
    4099.500  0.6281943E+12  0.1705825E-02
    4149.500  0.6283743E+12  0.1706314E-02
    4199.500  0.6285547E+12  0.1706803E-02
    4249.500  0.6287365E+12  0.1707297E-02
    4299.500  0.6289172E+12  0.1707788E-02
    4349.500  0.6290849E+12  0.1708243E-02
    4399.500  0.6292526E+12  0.1708699E-02
    4449.500  0.6294293E+12  0.1709178E-02
    4499.500  0.6296079E+12  0.1709663E-02
    4549.500  0.6297785E+12  0.1710126E-02
    4599.500  0.6299469E+12  0.1710584E-02
    4649.500  0.6301062E+12  0.1711016E-02
    4699.500  0.6302638E+12  0.1711444E-02
    4749.500  0.6304130E+12  0.1711849E-02
    4799.500  0.6305619E+12  0.1712254E-02
    4849.500  0.6307045E+12  0.1712641E-02
    4899.500  0.6308414E+12  0.1713013E-02
    4949.500  0.6309700E+12  0.1713362E-02
    4999.500  0.6310981E+12  0.1713710E-02
    5049.500  0.6312173E+12  0.1714034E-02
    5099.500  0.6313316E+12  0.1714344E-02
    5149.500  0.6314399E+12  0.1714638E-02
    5199.500  0.6315425E+12  0.1714917E-02
    5249.500  0.6316394E+12  0.1715180E-02
    5299.500  0.6317289E+12  0.1715423E-02
    5349.500  0.6318156E+12  0.1715658E-02
    5399.500  0.6318978E+12  0.1715881E-02
    5449.500  0.6319722E+12  0.1716083E-02
    5499.500  0.6320454E+12  0.1716282E-02
    5549.500  0.6321127E+12  0.1716465E-02
    5599.500  0.6321704E+12  0.1716622E-02
    5649.500  0.6322296E+12  0.1716782E-02
    5699.500  0.6322841E+12  0.1716930E-02
    5749.500  0.6323348E+12  0.1717068E-02
    5799.500  0.6323813E+12  0.1717194E-02
    5849.500  0.6324263E+12  0.1717316E-02
    5899.500  0.6324659E+12  0.1717424E-02
    5949.500  0.6325024E+12  0.1717523E-02
    5999.500  0.6325357E+12  0.1717614E-02
    6049.500  0.6325657E+12  0.1717695E-02
    6099.500  0.6325971E+12  0.1717780E-02
    6149.500  0.6326222E+12  0.1717849E-02
    6199.500  0.6326475E+12  0.1717917E-02
    6249.500  0.6326717E+12  0.1717983E-02
    6299.500  0.6326916E+12  0.1718037E-02
    6349.500  0.6327099E+12  0.1718087E-02
    6399.500  0.6327301E+12  0.1718141E-02
    6449.500  0.6327471E+12  0.1718188E-02
    6499.500  0.6327613E+12  0.1718226E-02
    6549.500  0.6327727E+12  0.1718257E-02
    6599.500  0.6327869E+12  0.1718296E-02
    6649.500  0.6328047E+12  0.1718344E-02
    6699.500  0.6328074E+12  0.1718351E-02
    6749.500  0.6328206E+12  0.1718387E-02
    6799.500  0.6328272E+12  0.1718405E-02
    6849.500  0.6328365E+12  0.1718430E-02
    6899.500  0.6328503E+12  0.1718468E-02
    6949.500  0.6328532E+12  0.1718476E-02
    6999.500  0.6328564E+12  0.1718484E-02
    7049.500  0.6328606E+12  0.1718496E-02
    7099.500  0.6328733E+12  0.1718530E-02
    7149.500  0.6328710E+12  0.1718524E-02
    7199.500  0.6328779E+12  0.1718543E-02
    7249.500  0.6328850E+12  0.1718562E-02
    7299.500  0.6328823E+12  0.1718555E-02
    7349.500  0.6328962E+12  0.1718593E-02
    7399.500  0.6328939E+12  0.1718586E-02
    7449.500  0.6329039E+12  0.1718613E-02
    7499.500  0.6328987E+12  0.1718599E-02
    7549.500  0.6329007E+12  0.1718605E-02
    7599.500  0.6329137E+12  0.1718640E-02
    7649.500  0.6329072E+12  0.1718622E-02
    7699.500  0.6329163E+12  0.1718647E-02
    7749.500  0.6329080E+12  0.1718625E-02
    7799.500  0.6329173E+12  0.1718650E-02
    7849.500  0.6329137E+12  0.1718640E-02
    7899.500  0.6329160E+12  0.1718646E-02
    7949.500  0.6329233E+12  0.1718666E-02
    7999.500  0.6329188E+12  0.1718654E-02
    8049.500  0.6329291E+12  0.1718682E-02
    8099.500  0.6329244E+12  0.1718669E-02
    8149.500  0.6329310E+12  0.1718687E-02
    8199.500  0.6329262E+12  0.1718674E-02
    8249.500  0.6329242E+12  0.1718668E-02
    8299.500  0.6329358E+12  0.1718700E-02
    8349.500  0.6329266E+12  0.1718675E-02
    8399.500  0.6329344E+12  0.1718696E-02
    8449.500  0.6329282E+12  0.1718679E-02
    8499.500  0.6329383E+12  0.1718707E-02
    8549.500  0.6329341E+12  0.1718695E-02
    8599.500  0.6329319E+12  0.1718690E-02
    8649.500  0.6329408E+12  0.1718714E-02
    8699.500  0.6329359E+12  0.1718700E-02
    8749.500  0.6329431E+12  0.1718720E-02
    8799.500  0.6329368E+12  0.1718703E-02
    8849.500  0.6329441E+12  0.1718723E-02
    8899.500  0.6329379E+12  0.1718706E-02
    8949.500  0.6329385E+12  0.1718707E-02
    8999.500  0.6329454E+12  0.1718726E-02
    9049.500  0.6329400E+12  0.1718711E-02
    9099.500  0.6329476E+12  0.1718732E-02
    9149.500  0.6329396E+12  0.1718710E-02
    9199.500  0.6329456E+12  0.1718727E-02
    9249.500  0.6329416E+12  0.1718716E-02
    9299.500  0.6329434E+12  0.1718721E-02
    9349.500  0.6329488E+12  0.1718735E-02
    9399.500  0.6329424E+12  0.1718718E-02
    9449.500  0.6329498E+12  0.1718738E-02
    9499.500  0.6329435E+12  0.1718721E-02
    9549.500  0.6329506E+12  0.1718740E-02
    9599.500  0.6329447E+12  0.1718724E-02
    9649.500  0.6329455E+12  0.1718726E-02
    9699.500  0.6329526E+12  0.1718746E-02
    9749.500  0.6329455E+12  0.1718726E-02
    9799.500  0.6329514E+12  0.1718742E-02
    9849.500  0.6329447E+12  0.1718724E-02
    9899.500  0.6329527E+12  0.1718746E-02
    9949.500  0.6329467E+12  0.1718730E-02
    9999.500  0.6329446E+12  0.1718724E-02
