 % time (yr) / global POFe flux (mol yr-1) / global POFe density (mol m-2 yr-1) / global POFe DOM fraction
       0.500  0.5584183E+10  0.1516352E-04    0.666
       1.500  0.5102043E+10  0.1385430E-04    0.662
       2.500  0.4751267E+10  0.1290179E-04    0.662
       3.500  0.4554502E+10  0.1236748E-04    0.662
       4.500  0.4404090E+10  0.1195905E-04    0.664
       5.500  0.4269083E+10  0.1159245E-04    0.664
       6.500  0.4138134E+10  0.1123686E-04    0.665
       7.500  0.4023135E+10  0.1092459E-04    0.666
       8.500  0.3919040E+10  0.1064192E-04    0.667
       9.500  0.3815299E+10  0.1036022E-04    0.668
      10.500  0.3740759E+10  0.1015781E-04    0.669
      11.500  0.3666238E+10  0.9955454E-05    0.669
      12.500  0.3594232E+10  0.9759925E-05    0.670
      13.500  0.3531776E+10  0.9590331E-05    0.671
      14.500  0.3475550E+10  0.9437652E-05    0.671
      15.500  0.3425865E+10  0.9302736E-05    0.672
      16.500  0.3381608E+10  0.9182558E-05    0.672
      17.500  0.3342364E+10  0.9075994E-05    0.673
      18.500  0.3304074E+10  0.8972018E-05    0.673
      19.500  0.3268408E+10  0.8875170E-05    0.674
      21.500  0.3205442E+10  0.8704191E-05    0.675
      23.500  0.3151813E+10  0.8558564E-05    0.676
      25.500  0.3107390E+10  0.8437936E-05    0.676
      27.500  0.3068709E+10  0.8332898E-05    0.677
      29.500  0.3039524E+10  0.8253649E-05    0.678
      31.500  0.3010903E+10  0.8175931E-05    0.678
      33.500  0.2985296E+10  0.8106395E-05    0.679
      35.500  0.2964989E+10  0.8051253E-05    0.679
      37.500  0.2946785E+10  0.8001822E-05    0.680
      39.500  0.2932985E+10  0.7964348E-05    0.680
      41.500  0.2917281E+10  0.7921706E-05    0.680
      43.500  0.2903106E+10  0.7883213E-05    0.681
      45.500  0.2896002E+10  0.7863925E-05    0.681
      47.500  0.2885206E+10  0.7834607E-05    0.681
      49.500  0.2876254E+10  0.7810300E-05    0.681
      51.500  0.2870403E+10  0.7794412E-05    0.682
      53.500  0.2863397E+10  0.7775387E-05    0.682
      55.500  0.2856118E+10  0.7755621E-05    0.682
      57.500  0.2847231E+10  0.7731489E-05    0.682
      59.500  0.2840900E+10  0.7714297E-05    0.683
      61.500  0.2834673E+10  0.7697389E-05    0.683
      63.500  0.2838041E+10  0.7706534E-05    0.682
      65.500  0.2829663E+10  0.7683785E-05    0.682
      67.500  0.2820838E+10  0.7659820E-05    0.683
      69.500  0.2816420E+10  0.7647822E-05    0.683
      71.500  0.2817392E+10  0.7650463E-05    0.683
      73.500  0.2816963E+10  0.7649297E-05    0.683
      75.500  0.2810663E+10  0.7632190E-05    0.683
      77.500  0.2807292E+10  0.7623037E-05    0.683
      79.500  0.2804538E+10  0.7615557E-05    0.683
      81.500  0.2805853E+10  0.7619129E-05    0.683
      83.500  0.2804604E+10  0.7615737E-05    0.683
      85.500  0.2805015E+10  0.7616854E-05    0.683
      87.500  0.2799518E+10  0.7601928E-05    0.684
      89.500  0.2796344E+10  0.7593309E-05    0.684
      91.500  0.2796414E+10  0.7593498E-05    0.684
      93.500  0.2796123E+10  0.7592707E-05    0.684
      95.500  0.2793112E+10  0.7584531E-05    0.684
      97.500  0.2792038E+10  0.7581614E-05    0.684
      99.500  0.2789697E+10  0.7575258E-05    0.684
     104.500  0.2792290E+10  0.7582300E-05    0.684
     109.500  0.2788809E+10  0.7572848E-05    0.684
     114.500  0.2787888E+10  0.7570347E-05    0.685
     119.500  0.2792945E+10  0.7584078E-05    0.684
     124.500  0.2790958E+10  0.7578682E-05    0.685
     129.500  0.2794991E+10  0.7589633E-05    0.684
     134.500  0.2792961E+10  0.7584122E-05    0.685
     139.500  0.2794936E+10  0.7589485E-05    0.684
     144.500  0.2795839E+10  0.7591937E-05    0.684
     149.500  0.2798473E+10  0.7599088E-05    0.685
     154.500  0.2799818E+10  0.7602742E-05    0.685
     159.500  0.2801493E+10  0.7607290E-05    0.684
     164.500  0.2802976E+10  0.7611317E-05    0.685
     169.500  0.2805639E+10  0.7618547E-05    0.685
     174.500  0.2809981E+10  0.7630340E-05    0.685
     179.500  0.2811883E+10  0.7635502E-05    0.685
     184.500  0.2814315E+10  0.7642108E-05    0.685
     189.500  0.2816838E+10  0.7648958E-05    0.685
     194.500  0.2818276E+10  0.7652864E-05    0.685
     199.500  0.2821099E+10  0.7660530E-05    0.685
     204.500  0.2824526E+10  0.7669834E-05    0.685
     209.500  0.2827116E+10  0.7676867E-05    0.685
     214.500  0.2830529E+10  0.7686135E-05    0.685
     219.500  0.2832759E+10  0.7692192E-05    0.684
     224.500  0.2835074E+10  0.7698478E-05    0.685
     229.500  0.2838337E+10  0.7707337E-05    0.684
     234.500  0.2839495E+10  0.7710482E-05    0.684
     239.500  0.2842455E+10  0.7718521E-05    0.684
     244.500  0.2843644E+10  0.7721749E-05    0.685
     249.500  0.2844891E+10  0.7725134E-05    0.684
     254.500  0.2846932E+10  0.7730676E-05    0.684
     259.500  0.2850020E+10  0.7739061E-05    0.684
     264.500  0.2851949E+10  0.7744300E-05    0.684
     269.500  0.2854682E+10  0.7751723E-05    0.684
     274.500  0.2857849E+10  0.7760322E-05    0.684
     279.500  0.2860272E+10  0.7766901E-05    0.684
     284.500  0.2861748E+10  0.7770908E-05    0.684
     289.500  0.2864040E+10  0.7777132E-05    0.684
     294.500  0.2867339E+10  0.7786091E-05    0.684
     299.500  0.2870959E+10  0.7795920E-05    0.684
     304.500  0.2871795E+10  0.7798190E-05    0.684
     309.500  0.2873456E+10  0.7802702E-05    0.684
     314.500  0.2876063E+10  0.7809780E-05    0.684
     319.500  0.2877886E+10  0.7814731E-05    0.684
     324.500  0.2878808E+10  0.7817235E-05    0.684
     329.500  0.2879491E+10  0.7819089E-05    0.684
     334.500  0.2879153E+10  0.7818172E-05    0.684
     339.500  0.2880220E+10  0.7821070E-05    0.684
     344.500  0.2881067E+10  0.7823369E-05    0.684
     349.500  0.2881712E+10  0.7825121E-05    0.684
     354.500  0.2883078E+10  0.7828829E-05    0.684
     359.500  0.2884216E+10  0.7831918E-05    0.684
     364.500  0.2885098E+10  0.7834313E-05    0.684
     369.500  0.2884956E+10  0.7833928E-05    0.684
     374.500  0.2885114E+10  0.7834357E-05    0.684
     379.500  0.2884794E+10  0.7833489E-05    0.684
     384.500  0.2884831E+10  0.7833591E-05    0.684
     389.500  0.2884971E+10  0.7833971E-05    0.684
     394.500  0.2886323E+10  0.7837640E-05    0.684
     399.500  0.2886761E+10  0.7838831E-05    0.684
     404.500  0.2886607E+10  0.7838412E-05    0.684
     409.500  0.2886276E+10  0.7837513E-05    0.684
     414.500  0.2886180E+10  0.7837252E-05    0.684
     419.500  0.2887164E+10  0.7839923E-05    0.684
     424.500  0.2887367E+10  0.7840475E-05    0.684
     429.500  0.2887316E+10  0.7840337E-05    0.684
     434.500  0.2886369E+10  0.7837765E-05    0.684
     439.500  0.2885984E+10  0.7836720E-05    0.684
     444.500  0.2885881E+10  0.7836440E-05    0.684
     449.500  0.2885699E+10  0.7835946E-05    0.684
     454.500  0.2884813E+10  0.7833540E-05    0.684
     459.500  0.2885170E+10  0.7834509E-05    0.684
     464.500  0.2885041E+10  0.7834159E-05    0.684
     469.500  0.2884502E+10  0.7832696E-05    0.684
     474.500  0.2885005E+10  0.7834062E-05    0.684
     479.500  0.2884064E+10  0.7831508E-05    0.684
     484.500  0.2886075E+10  0.7836968E-05    0.684
     489.500  0.2884917E+10  0.7833823E-05    0.684
     494.500  0.2886364E+10  0.7837752E-05    0.684
     499.500  0.2884699E+10  0.7833231E-05    0.684
     504.500  0.2887144E+10  0.7839870E-05    0.684
     509.500  0.2884963E+10  0.7833947E-05    0.684
     514.500  0.2886749E+10  0.7838798E-05    0.684
     519.500  0.2885239E+10  0.7834697E-05    0.684
     524.500  0.2887903E+10  0.7841932E-05    0.684
     529.500  0.2885518E+10  0.7835456E-05    0.684
     534.500  0.2886877E+10  0.7839144E-05    0.684
     539.500  0.2885279E+10  0.7834806E-05    0.684
     544.500  0.2887641E+10  0.7841218E-05    0.684
     549.500  0.2885790E+10  0.7836192E-05    0.684
     554.500  0.2888385E+10  0.7843240E-05    0.684
     559.500  0.2888243E+10  0.7842855E-05    0.684
     564.500  0.2889393E+10  0.7845977E-05    0.684
     569.500  0.2887528E+10  0.7840913E-05    0.684
     574.500  0.2888279E+10  0.7842953E-05    0.684
     579.500  0.2889140E+10  0.7845290E-05    0.684
     584.500  0.2890040E+10  0.7847734E-05    0.684
     589.500  0.2887968E+10  0.7842109E-05    0.684
     594.500  0.2889946E+10  0.7847478E-05    0.684
     599.500  0.2890106E+10  0.7847914E-05    0.684
     604.500  0.2890115E+10  0.7847936E-05    0.684
     609.500  0.2889631E+10  0.7846624E-05    0.684
     614.500  0.2890114E+10  0.7847935E-05    0.683
     619.500  0.2890439E+10  0.7848818E-05    0.683
     624.500  0.2891294E+10  0.7851140E-05    0.683
     629.500  0.2891625E+10  0.7852038E-05    0.683
     634.500  0.2891950E+10  0.7852920E-05    0.683
     639.500  0.2891273E+10  0.7851083E-05    0.683
     644.500  0.2891743E+10  0.7852358E-05    0.684
     649.500  0.2891817E+10  0.7852560E-05    0.684
     654.500  0.2891999E+10  0.7853055E-05    0.684
     659.500  0.2891965E+10  0.7852960E-05    0.684
     664.500  0.2891579E+10  0.7851912E-05    0.684
     669.500  0.2891530E+10  0.7851781E-05    0.684
     674.500  0.2891797E+10  0.7852505E-05    0.684
     679.500  0.2893228E+10  0.7856390E-05    0.683
     684.500  0.2895298E+10  0.7862011E-05    0.683
     689.500  0.2894154E+10  0.7858904E-05    0.683
     694.500  0.2896217E+10  0.7864507E-05    0.683
     699.500  0.2893971E+10  0.7858409E-05    0.683
     704.500  0.2897221E+10  0.7867232E-05    0.683
     709.500  0.2894902E+10  0.7860936E-05    0.683
     714.500  0.2897708E+10  0.7868555E-05    0.683
     719.500  0.2895971E+10  0.7863840E-05    0.683
     724.500  0.2896646E+10  0.7865672E-05    0.683
     729.500  0.2896924E+10  0.7866428E-05    0.683
     734.500  0.2897328E+10  0.7867524E-05    0.683
     739.500  0.2897765E+10  0.7868712E-05    0.683
     744.500  0.2897602E+10  0.7868270E-05    0.683
     749.500  0.2897639E+10  0.7868368E-05    0.683
     754.500  0.2897404E+10  0.7867731E-05    0.683
     759.500  0.2897649E+10  0.7868395E-05    0.683
     764.500  0.2898344E+10  0.7870283E-05    0.683
     769.500  0.2898545E+10  0.7870829E-05    0.683
     774.500  0.2898964E+10  0.7871965E-05    0.683
     779.500  0.2899336E+10  0.7872978E-05    0.683
     784.500  0.2898899E+10  0.7871790E-05    0.683
     789.500  0.2898083E+10  0.7869575E-05    0.683
     794.500  0.2899938E+10  0.7874610E-05    0.683
     799.500  0.2897570E+10  0.7868182E-05    0.683
     804.500  0.2900368E+10  0.7875779E-05    0.683
     809.500  0.2897203E+10  0.7867185E-05    0.683
     814.500  0.2898888E+10  0.7871761E-05    0.683
     819.500  0.2899092E+10  0.7872314E-05    0.683
     824.500  0.2899185E+10  0.7872566E-05    0.683
     829.500  0.2899278E+10  0.7872819E-05    0.683
     834.500  0.2899540E+10  0.7873530E-05    0.683
     839.500  0.2900900E+10  0.7877224E-05    0.683
     844.500  0.2900681E+10  0.7876630E-05    0.683
     849.500  0.2900918E+10  0.7877271E-05    0.683
     854.500  0.2901284E+10  0.7878268E-05    0.683
     859.500  0.2900896E+10  0.7877213E-05    0.683
     864.500  0.2900402E+10  0.7875870E-05    0.683
     869.500  0.2900661E+10  0.7876576E-05    0.683
     874.500  0.2901155E+10  0.7877916E-05    0.683
     879.500  0.2901147E+10  0.7877894E-05    0.683
     884.500  0.2901622E+10  0.7879183E-05    0.683
     889.500  0.2901455E+10  0.7878730E-05    0.683
     894.500  0.2901843E+10  0.7879786E-05    0.683
     899.500  0.2902367E+10  0.7881206E-05    0.683
     904.500  0.2901973E+10  0.7880138E-05    0.683
     909.500  0.2903443E+10  0.7884128E-05    0.683
     914.500  0.2902729E+10  0.7882190E-05    0.683
     919.500  0.2903048E+10  0.7883057E-05    0.683
     924.500  0.2902173E+10  0.7880682E-05    0.683
     929.500  0.2903265E+10  0.7883645E-05    0.683
     934.500  0.2903950E+10  0.7885506E-05    0.683
     939.500  0.2904212E+10  0.7886217E-05    0.683
     944.500  0.2904212E+10  0.7886217E-05    0.683
     949.500  0.2904261E+10  0.7886350E-05    0.683
     954.500  0.2905181E+10  0.7888850E-05    0.683
     959.500  0.2905613E+10  0.7890021E-05    0.683
     964.500  0.2905833E+10  0.7890620E-05    0.683
     969.500  0.2905020E+10  0.7888412E-05    0.683
     974.500  0.2906100E+10  0.7891344E-05    0.683
     979.500  0.2906171E+10  0.7891537E-05    0.683
     984.500  0.2906667E+10  0.7892884E-05    0.683
     989.500  0.2905781E+10  0.7890479E-05    0.683
     994.500  0.2908382E+10  0.7897540E-05    0.683
     999.500  0.2906049E+10  0.7891206E-05    0.683
    1019.500  0.2908132E+10  0.7896862E-05    0.683
    1039.500  0.2909326E+10  0.7900105E-05    0.683
    1059.500  0.2909720E+10  0.7901174E-05    0.683
    1079.500  0.2911045E+10  0.7904772E-05    0.683
    1099.500  0.2912265E+10  0.7908086E-05    0.683
    1119.500  0.2910969E+10  0.7904565E-05    0.683
    1139.500  0.2911761E+10  0.7906715E-05    0.683
    1159.500  0.2913799E+10  0.7912251E-05    0.683
    1179.500  0.2914291E+10  0.7913587E-05    0.683
    1199.500  0.2917764E+10  0.7923017E-05    0.682
    1219.500  0.2918255E+10  0.7924351E-05    0.682
    1239.500  0.2919008E+10  0.7926396E-05    0.682
    1259.500  0.2917277E+10  0.7921695E-05    0.682
    1279.500  0.2918081E+10  0.7923877E-05    0.682
    1299.500  0.2919122E+10  0.7926704E-05    0.682
    1319.500  0.2918260E+10  0.7924364E-05    0.682
    1339.500  0.2922409E+10  0.7935630E-05    0.682
    1359.500  0.2921601E+10  0.7933436E-05    0.682
    1379.500  0.2920946E+10  0.7931659E-05    0.682
    1399.500  0.2924772E+10  0.7942046E-05    0.682
    1419.500  0.2924381E+10  0.7940985E-05    0.682
    1439.500  0.2922957E+10  0.7937118E-05    0.682
    1459.500  0.2925155E+10  0.7943086E-05    0.682
    1479.500  0.2925021E+10  0.7942724E-05    0.682
    1499.500  0.2928290E+10  0.7951601E-05    0.682
    1519.500  0.2927057E+10  0.7948251E-05    0.682
    1539.500  0.2926788E+10  0.7947522E-05    0.682
    1559.500  0.2926505E+10  0.7946752E-05    0.682
    1579.500  0.2927708E+10  0.7950019E-05    0.682
    1599.500  0.2928506E+10  0.7952186E-05    0.682
    1619.500  0.2928059E+10  0.7950973E-05    0.682
    1639.500  0.2927905E+10  0.7950554E-05    0.682
    1659.500  0.2929867E+10  0.7955883E-05    0.682
    1679.500  0.2930793E+10  0.7958395E-05    0.682
    1699.500  0.2930776E+10  0.7958350E-05    0.682
    1719.500  0.2930486E+10  0.7957564E-05    0.682
    1739.500  0.2931243E+10  0.7959617E-05    0.682
    1759.500  0.2931969E+10  0.7961591E-05    0.682
    1779.500  0.2932239E+10  0.7962322E-05    0.682
    1799.500  0.2932621E+10  0.7963359E-05    0.682
    1819.500  0.2932931E+10  0.7964203E-05    0.682
    1839.500  0.2933247E+10  0.7965060E-05    0.682
    1859.500  0.2933682E+10  0.7966241E-05    0.682
    1879.500  0.2933876E+10  0.7966769E-05    0.682
    1899.500  0.2934106E+10  0.7967394E-05    0.682
    1919.500  0.2934574E+10  0.7968664E-05    0.682
    1939.500  0.2934680E+10  0.7968951E-05    0.682
    1959.500  0.2934637E+10  0.7968835E-05    0.682
    1979.500  0.2934664E+10  0.7968909E-05    0.682
    1999.500  0.2935123E+10  0.7970154E-05    0.682
    2049.500  0.2935766E+10  0.7971900E-05    0.682
    2099.500  0.2936325E+10  0.7973417E-05    0.682
    2149.500  0.2936584E+10  0.7974123E-05    0.682
    2199.500  0.2937125E+10  0.7975590E-05    0.682
    2249.500  0.2937687E+10  0.7977118E-05    0.682
    2299.500  0.2938169E+10  0.7978426E-05    0.682
    2349.500  0.2938639E+10  0.7979702E-05    0.682
    2399.500  0.2939076E+10  0.7980889E-05    0.682
    2449.500  0.2939590E+10  0.7982285E-05    0.682
    2499.500  0.2939943E+10  0.7983244E-05    0.682
    2549.500  0.2940174E+10  0.7983871E-05    0.682
    2599.500  0.2940759E+10  0.7985459E-05    0.682
    2649.500  0.2941249E+10  0.7986788E-05    0.682
    2699.500  0.2941884E+10  0.7988514E-05    0.682
    2749.500  0.2942582E+10  0.7990409E-05    0.681
    2799.500  0.2943044E+10  0.7991662E-05    0.681
    2849.500  0.2943388E+10  0.7992597E-05    0.681
    2899.500  0.2943766E+10  0.7993623E-05    0.681
    2949.500  0.2944172E+10  0.7994726E-05    0.681
    2999.500  0.2944583E+10  0.7995842E-05    0.681
    3049.500  0.2944921E+10  0.7996761E-05    0.681
    3099.500  0.2945377E+10  0.7997999E-05    0.681
    3149.500  0.2945671E+10  0.7998795E-05    0.681
    3199.500  0.2946078E+10  0.7999901E-05    0.681
    3249.500  0.2946551E+10  0.8001187E-05    0.681
    3299.500  0.2946893E+10  0.8002116E-05    0.681
    3349.500  0.2947410E+10  0.8003518E-05    0.681
    3399.500  0.2947702E+10  0.8004311E-05    0.681
    3449.500  0.2948021E+10  0.8005178E-05    0.681
    3499.500  0.2948395E+10  0.8006193E-05    0.681
    3549.500  0.2948886E+10  0.8007528E-05    0.681
    3599.500  0.2949274E+10  0.8008582E-05    0.681
    3649.500  0.2949645E+10  0.8009587E-05    0.681
    3699.500  0.2950023E+10  0.8010615E-05    0.681
    3749.500  0.2950474E+10  0.8011840E-05    0.681
    3799.500  0.2950720E+10  0.8012507E-05    0.681
    3849.500  0.2951243E+10  0.8013927E-05    0.681
    3899.500  0.2951563E+10  0.8014796E-05    0.681
    3949.500  0.2951969E+10  0.8015899E-05    0.681
    3999.500  0.2952377E+10  0.8017006E-05    0.681
    4049.500  0.2952723E+10  0.8017947E-05    0.681
    4099.500  0.2953029E+10  0.8018776E-05    0.681
    4149.500  0.2953469E+10  0.8019972E-05    0.681
    4199.500  0.2953902E+10  0.8021148E-05    0.681
    4249.500  0.2954266E+10  0.8022136E-05    0.681
    4299.500  0.2954570E+10  0.8022962E-05    0.681
    4349.500  0.2954814E+10  0.8023624E-05    0.681
    4399.500  0.2955250E+10  0.8024809E-05    0.681
    4449.500  0.2955552E+10  0.8025629E-05    0.681
    4499.500  0.2955915E+10  0.8026614E-05    0.681
    4549.500  0.2956211E+10  0.8027418E-05    0.681
    4599.500  0.2956549E+10  0.8028334E-05    0.681
    4649.500  0.2956824E+10  0.8029081E-05    0.681
    4699.500  0.2957112E+10  0.8029863E-05    0.681
    4749.500  0.2957423E+10  0.8030710E-05    0.681
    4799.500  0.2957609E+10  0.8031212E-05    0.681
    4849.500  0.2957931E+10  0.8032088E-05    0.681
    4899.500  0.2958076E+10  0.8032483E-05    0.681
    4949.500  0.2958408E+10  0.8033385E-05    0.681
    4999.500  0.2958547E+10  0.8033760E-05    0.681
    5049.500  0.2958800E+10  0.8034449E-05    0.681
    5099.500  0.2958964E+10  0.8034893E-05    0.681
    5149.500  0.2959235E+10  0.8035629E-05    0.681
    5199.500  0.2959315E+10  0.8035846E-05    0.681
    5249.500  0.2959482E+10  0.8036299E-05    0.681
    5299.500  0.2959756E+10  0.8037045E-05    0.681
    5349.500  0.2959787E+10  0.8037129E-05    0.681
    5399.500  0.2959993E+10  0.8037687E-05    0.681
    5449.500  0.2960059E+10  0.8037866E-05    0.681
    5499.500  0.2960142E+10  0.8038091E-05    0.681
    5549.500  0.2960288E+10  0.8038488E-05    0.681
    5599.500  0.2960380E+10  0.8038739E-05    0.681
    5649.500  0.2960477E+10  0.8039003E-05    0.681
    5699.500  0.2960564E+10  0.8039238E-05    0.681
    5749.500  0.2960681E+10  0.8039556E-05    0.681
    5799.500  0.2960733E+10  0.8039696E-05    0.681
    5849.500  0.2960737E+10  0.8039707E-05    0.681
    5899.500  0.2960858E+10  0.8040036E-05    0.681
    5949.500  0.2960907E+10  0.8040170E-05    0.681
    5999.500  0.2960906E+10  0.8040168E-05    0.681
    6049.500  0.2961008E+10  0.8040443E-05    0.681
    6099.500  0.2960981E+10  0.8040371E-05    0.681
    6149.500  0.2961011E+10  0.8040451E-05    0.681
    6199.500  0.2961103E+10  0.8040701E-05    0.681
    6249.500  0.2961158E+10  0.8040851E-05    0.681
    6299.500  0.2961228E+10  0.8041041E-05    0.681
    6349.500  0.2961163E+10  0.8040863E-05    0.681
    6399.500  0.2961184E+10  0.8040921E-05    0.681
    6449.500  0.2961241E+10  0.8041076E-05    0.681
    6499.500  0.2961220E+10  0.8041020E-05    0.681
    6549.500  0.2961200E+10  0.8040964E-05    0.681
    6599.500  0.2961232E+10  0.8041053E-05    0.681
