 % time (yr) / global CaCO3 flux (mol yr-1) / global CaCO3 density (mol m-2 yr-1) / global CaCO3 DOM fraction
       0.500  0.1167328E+15  0.3169811E+00    0.000
       1.500  0.1458873E+15  0.3961485E+00    0.000
       2.500  0.1436283E+15  0.3900142E+00    0.000
       3.500  0.1394597E+15  0.3786946E+00    0.000
       4.500  0.1348982E+15  0.3663081E+00    0.000
       5.500  0.1303191E+15  0.3538739E+00    0.000
       6.500  0.1256472E+15  0.3411875E+00    0.000
       7.500  0.1213370E+15  0.3294836E+00    0.000
       8.500  0.1174925E+15  0.3190439E+00    0.000
       9.500  0.1138917E+15  0.3092661E+00    0.000
      10.500  0.1108539E+15  0.3010174E+00    0.000
      11.500  0.1080188E+15  0.2933187E+00    0.000
      12.500  0.1054030E+15  0.2862156E+00    0.000
      13.500  0.1030502E+15  0.2798268E+00    0.000
      14.500  0.1008669E+15  0.2738983E+00    0.000
      15.500  0.9892819E+14  0.2686337E+00    0.000
      16.500  0.9718659E+14  0.2639045E+00    0.000
      17.500  0.9558821E+14  0.2595642E+00    0.000
      18.500  0.9407605E+14  0.2554580E+00    0.000
      19.500  0.9267018E+14  0.2516404E+00    0.000
      21.500  0.9019417E+14  0.2449170E+00    0.000
      23.500  0.8805851E+14  0.2391177E+00    0.000
      25.500  0.8624984E+14  0.2342064E+00    0.000
      27.500  0.8470742E+14  0.2300180E+00    0.000
      29.500  0.8341995E+14  0.2265220E+00    0.000
      31.500  0.8226988E+14  0.2233990E+00    0.000
      33.500  0.8125575E+14  0.2206452E+00    0.000
      35.500  0.8036018E+14  0.2182134E+00    0.000
      37.500  0.7956041E+14  0.2160416E+00    0.000
      39.500  0.7888983E+14  0.2142207E+00    0.000
      41.500  0.7819318E+14  0.2123290E+00    0.000
      43.500  0.7756287E+14  0.2106174E+00    0.000
      45.500  0.7706629E+14  0.2092690E+00    0.000
      47.500  0.7654013E+14  0.2078402E+00    0.000
      49.500  0.7605457E+14  0.2065217E+00    0.000
      51.500  0.7562731E+14  0.2053615E+00    0.000
      53.500  0.7521832E+14  0.2042509E+00    0.000
      55.500  0.7480997E+14  0.2031421E+00    0.000
      57.500  0.7438799E+14  0.2019962E+00    0.000
      59.500  0.7404326E+14  0.2010601E+00    0.000
      61.500  0.7370881E+14  0.2001520E+00    0.000
      63.500  0.7349328E+14  0.1995667E+00    0.000
      65.500  0.7316436E+14  0.1986735E+00    0.000
      67.500  0.7283767E+14  0.1977864E+00    0.000
      69.500  0.7256989E+14  0.1970593E+00    0.000
      71.500  0.7238872E+14  0.1965673E+00    0.000
      73.500  0.7219678E+14  0.1960461E+00    0.000
      75.500  0.7195237E+14  0.1953824E+00    0.000
      77.500  0.7174739E+14  0.1948258E+00    0.000
      79.500  0.7156517E+14  0.1943310E+00    0.000
      81.500  0.7144338E+14  0.1940003E+00    0.000
      83.500  0.7130643E+14  0.1936284E+00    0.000
      85.500  0.7118981E+14  0.1933118E+00    0.000
      87.500  0.7102623E+14  0.1928676E+00    0.000
      89.500  0.7086336E+14  0.1924253E+00    0.000
      91.500  0.7076118E+14  0.1921478E+00    0.000
      93.500  0.7065816E+14  0.1918681E+00    0.000
      95.500  0.7053426E+14  0.1915316E+00    0.000
      97.500  0.7043571E+14  0.1912640E+00    0.000
      99.500  0.7030456E+14  0.1909079E+00    0.000
     104.500  0.7015837E+14  0.1905109E+00    0.000
     109.500  0.6995485E+14  0.1899583E+00    0.000
     114.500  0.6981214E+14  0.1895708E+00    0.000
     119.500  0.6976040E+14  0.1894303E+00    0.000
     124.500  0.6965545E+14  0.1891453E+00    0.000
     129.500  0.6961321E+14  0.1890306E+00    0.000
     134.500  0.6952709E+14  0.1887967E+00    0.000
     139.500  0.6947208E+14  0.1886474E+00    0.000
     144.500  0.6940850E+14  0.1884747E+00    0.000
     149.500  0.6940154E+14  0.1884558E+00    0.000
     154.500  0.6937732E+14  0.1883900E+00    0.000
     159.500  0.6937101E+14  0.1883729E+00    0.000
     164.500  0.6936461E+14  0.1883555E+00    0.000
     169.500  0.6935584E+14  0.1883317E+00    0.000
     174.500  0.6940376E+14  0.1884619E+00    0.000
     179.500  0.6941896E+14  0.1885031E+00    0.000
     184.500  0.6944542E+14  0.1885750E+00    0.000
     189.500  0.6947842E+14  0.1886646E+00    0.000
     194.500  0.6949883E+14  0.1887200E+00    0.000
     199.500  0.6953315E+14  0.1888132E+00    0.000
     204.500  0.6957649E+14  0.1889309E+00    0.000
     209.500  0.6960798E+14  0.1890164E+00    0.000
     214.500  0.6965267E+14  0.1891377E+00    0.000
     219.500  0.6969593E+14  0.1892552E+00    0.000
     224.500  0.6974428E+14  0.1893865E+00    0.000
     229.500  0.6978554E+14  0.1894985E+00    0.000
     234.500  0.6981705E+14  0.1895841E+00    0.000
     239.500  0.6986688E+14  0.1897194E+00    0.000
     244.500  0.6989376E+14  0.1897924E+00    0.000
     249.500  0.6991770E+14  0.1898574E+00    0.000
     254.500  0.6995177E+14  0.1899499E+00    0.000
     259.500  0.7000709E+14  0.1901001E+00    0.000
     264.500  0.7004770E+14  0.1902104E+00    0.000
     269.500  0.7009391E+14  0.1903359E+00    0.000
     274.500  0.7015037E+14  0.1904892E+00    0.000
     279.500  0.7019373E+14  0.1906069E+00    0.000
     284.500  0.7022286E+14  0.1906860E+00    0.000
     289.500  0.7026479E+14  0.1907999E+00    0.000
     294.500  0.7032566E+14  0.1909652E+00    0.000
     299.500  0.7037536E+14  0.1911001E+00    0.000
     304.500  0.7040183E+14  0.1911721E+00    0.000
     309.500  0.7043044E+14  0.1912497E+00    0.000
     314.500  0.7047252E+14  0.1913640E+00    0.000
     319.500  0.7050039E+14  0.1914397E+00    0.000
     324.500  0.7051618E+14  0.1914825E+00    0.000
     329.500  0.7052644E+14  0.1915104E+00    0.000
     334.500  0.7052461E+14  0.1915054E+00    0.000
     339.500  0.7053974E+14  0.1915465E+00    0.000
     344.500  0.7054652E+14  0.1915649E+00    0.000
     349.500  0.7055031E+14  0.1915752E+00    0.000
     354.500  0.7056986E+14  0.1916283E+00    0.000
     359.500  0.7058524E+14  0.1916701E+00    0.000
     364.500  0.7059888E+14  0.1917071E+00    0.000
     369.500  0.7059500E+14  0.1916966E+00    0.000
     374.500  0.7059126E+14  0.1916864E+00    0.000
     379.500  0.7058353E+14  0.1916654E+00    0.000
     384.500  0.7057579E+14  0.1916444E+00    0.000
     389.500  0.7057500E+14  0.1916423E+00    0.000
     394.500  0.7059483E+14  0.1916961E+00    0.000
     399.500  0.7059851E+14  0.1917061E+00    0.000
     404.500  0.7058974E+14  0.1916823E+00    0.000
     409.500  0.7058295E+14  0.1916639E+00    0.000
     414.500  0.7057620E+14  0.1916455E+00    0.000
     419.500  0.7058583E+14  0.1916717E+00    0.000
     424.500  0.7058849E+14  0.1916789E+00    0.000
     429.500  0.7057994E+14  0.1916557E+00    0.000
     434.500  0.7057358E+14  0.1916384E+00    0.000
     439.500  0.7055988E+14  0.1916012E+00    0.000
     444.500  0.7055460E+14  0.1915869E+00    0.000
     449.500  0.7054921E+14  0.1915723E+00    0.000
     454.500  0.7053636E+14  0.1915374E+00    0.000
     459.500  0.7053761E+14  0.1915407E+00    0.000
     464.500  0.7053457E+14  0.1915325E+00    0.000
     469.500  0.7052780E+14  0.1915141E+00    0.000
     474.500  0.7052682E+14  0.1915114E+00    0.000
     479.500  0.7050375E+14  0.1914488E+00    0.000
     484.500  0.7052765E+14  0.1915137E+00    0.000
     489.500  0.7050955E+14  0.1914645E+00    0.000
     494.500  0.7053315E+14  0.1915286E+00    0.000
     499.500  0.7051293E+14  0.1914737E+00    0.000
     504.500  0.7055061E+14  0.1915760E+00    0.000
     509.500  0.7051820E+14  0.1914880E+00    0.000
     514.500  0.7054371E+14  0.1915573E+00    0.000
     519.500  0.7052118E+14  0.1914961E+00    0.000
     524.500  0.7056395E+14  0.1916123E+00    0.000
     529.500  0.7052697E+14  0.1915119E+00    0.000
     534.500  0.7055519E+14  0.1915885E+00    0.000
     539.500  0.7053154E+14  0.1915243E+00    0.000
     544.500  0.7056846E+14  0.1916245E+00    0.000
     549.500  0.7054086E+14  0.1915496E+00    0.000
     554.500  0.7057990E+14  0.1916556E+00    0.000
     559.500  0.7058217E+14  0.1916617E+00    0.000
     564.500  0.7060388E+14  0.1917207E+00    0.000
     569.500  0.7058223E+14  0.1916619E+00    0.000
     574.500  0.7059775E+14  0.1917041E+00    0.000
     579.500  0.7060755E+14  0.1917307E+00    0.000
     584.500  0.7062719E+14  0.1917840E+00    0.000
     589.500  0.7059869E+14  0.1917066E+00    0.000
     594.500  0.7063195E+14  0.1917969E+00    0.000
     599.500  0.7063225E+14  0.1917977E+00    0.000
     604.500  0.7064024E+14  0.1918194E+00    0.000
     609.500  0.7064305E+14  0.1918271E+00    0.000
     614.500  0.7065346E+14  0.1918553E+00    0.000
     619.500  0.7065628E+14  0.1918630E+00    0.000
     624.500  0.7066943E+14  0.1918987E+00    0.000
     629.500  0.7067931E+14  0.1919255E+00    0.000
     634.500  0.7069071E+14  0.1919565E+00    0.000
     639.500  0.7068534E+14  0.1919419E+00    0.000
     644.500  0.7069613E+14  0.1919712E+00    0.000
     649.500  0.7070008E+14  0.1919819E+00    0.000
     654.500  0.7070865E+14  0.1920052E+00    0.000
     659.500  0.7070619E+14  0.1919985E+00    0.000
     664.500  0.7070017E+14  0.1919822E+00    0.000
     669.500  0.7070159E+14  0.1919860E+00    0.000
     674.500  0.7071063E+14  0.1920106E+00    0.000
     679.500  0.7073212E+14  0.1920689E+00    0.000
     684.500  0.7076660E+14  0.1921625E+00    0.000
     689.500  0.7076228E+14  0.1921508E+00    0.000
     694.500  0.7078283E+14  0.1922066E+00    0.000
     699.500  0.7075660E+14  0.1921354E+00    0.000
     704.500  0.7080233E+14  0.1922596E+00    0.000
     709.500  0.7077747E+14  0.1921921E+00    0.000
     714.500  0.7081860E+14  0.1923038E+00    0.000
     719.500  0.7080482E+14  0.1922663E+00    0.000
     724.500  0.7082267E+14  0.1923148E+00    0.000
     729.500  0.7083135E+14  0.1923384E+00    0.000
     734.500  0.7083947E+14  0.1923604E+00    0.000
     739.500  0.7084839E+14  0.1923846E+00    0.000
     744.500  0.7085560E+14  0.1924042E+00    0.000
     749.500  0.7086007E+14  0.1924164E+00    0.000
     754.500  0.7086671E+14  0.1924344E+00    0.000
     759.500  0.7087293E+14  0.1924513E+00    0.000
     764.500  0.7088376E+14  0.1924807E+00    0.000
     769.500  0.7089621E+14  0.1925145E+00    0.000
     774.500  0.7090646E+14  0.1925423E+00    0.000
     779.500  0.7091527E+14  0.1925662E+00    0.000
     784.500  0.7091780E+14  0.1925731E+00    0.000
     789.500  0.7091776E+14  0.1925730E+00    0.000
     794.500  0.7094304E+14  0.1926417E+00    0.000
     799.500  0.7091475E+14  0.1925649E+00    0.000
     804.500  0.7095719E+14  0.1926801E+00    0.000
     809.500  0.7091696E+14  0.1925708E+00    0.000
     814.500  0.7093521E+14  0.1926204E+00    0.000
     819.500  0.7094496E+14  0.1926469E+00    0.000
     824.500  0.7095419E+14  0.1926719E+00    0.000
     829.500  0.7095804E+14  0.1926824E+00    0.000
     834.500  0.7097504E+14  0.1927285E+00    0.000
     839.500  0.7099356E+14  0.1927788E+00    0.000
     844.500  0.7099642E+14  0.1927866E+00    0.000
     849.500  0.7100827E+14  0.1928188E+00    0.000
     854.500  0.7101731E+14  0.1928433E+00    0.000
     859.500  0.7102319E+14  0.1928593E+00    0.000
     864.500  0.7103377E+14  0.1928880E+00    0.000
     869.500  0.7104056E+14  0.1929065E+00    0.000
     874.500  0.7104950E+14  0.1929308E+00    0.000
     879.500  0.7105845E+14  0.1929550E+00    0.000
     884.500  0.7107322E+14  0.1929951E+00    0.000
     889.500  0.7107645E+14  0.1930039E+00    0.000
     894.500  0.7108587E+14  0.1930295E+00    0.000
     899.500  0.7109715E+14  0.1930601E+00    0.000
     904.500  0.7109836E+14  0.1930634E+00    0.000
     909.500  0.7112068E+14  0.1931240E+00    0.000
     914.500  0.7112525E+14  0.1931364E+00    0.000
     919.500  0.7113634E+14  0.1931666E+00    0.000
     924.500  0.7113079E+14  0.1931515E+00    0.000
     929.500  0.7115049E+14  0.1932050E+00    0.000
     934.500  0.7117567E+14  0.1932734E+00    0.000
     939.500  0.7118239E+14  0.1932916E+00    0.000
     944.500  0.7118788E+14  0.1933065E+00    0.000
     949.500  0.7119711E+14  0.1933316E+00    0.000
     954.500  0.7122145E+14  0.1933977E+00    0.000
     959.500  0.7123422E+14  0.1934323E+00    0.000
     964.500  0.7124122E+14  0.1934514E+00    0.000
     969.500  0.7123664E+14  0.1934389E+00    0.000
     974.500  0.7125781E+14  0.1934964E+00    0.000
     979.500  0.7126489E+14  0.1935156E+00    0.000
     984.500  0.7127448E+14  0.1935417E+00    0.000
     989.500  0.7126342E+14  0.1935116E+00    0.000
     994.500  0.7130363E+14  0.1936208E+00    0.000
     999.500  0.7128023E+14  0.1935573E+00    0.000
    1019.500  0.7133359E+14  0.1937022E+00    0.000
    1039.500  0.7138228E+14  0.1938344E+00    0.000
    1059.500  0.7141543E+14  0.1939244E+00    0.000
    1079.500  0.7145216E+14  0.1940242E+00    0.000
    1099.500  0.7149462E+14  0.1941395E+00    0.000
    1119.500  0.7149889E+14  0.1941510E+00    0.000
    1139.500  0.7153489E+14  0.1942488E+00    0.000
    1159.500  0.7158553E+14  0.1943863E+00    0.000
    1179.500  0.7162187E+14  0.1944850E+00    0.000
    1199.500  0.7168667E+14  0.1946609E+00    0.000
    1219.500  0.7171206E+14  0.1947299E+00    0.000
    1239.500  0.7174984E+14  0.1948325E+00    0.000
    1259.500  0.7175239E+14  0.1948394E+00    0.000
    1279.500  0.7178177E+14  0.1949192E+00    0.000
    1299.500  0.7181688E+14  0.1950145E+00    0.000
    1319.500  0.7184030E+14  0.1950781E+00    0.000
    1339.500  0.7192090E+14  0.1952970E+00    0.000
    1359.500  0.7194190E+14  0.1953540E+00    0.000
    1379.500  0.7195339E+14  0.1953852E+00    0.000
    1399.500  0.7203463E+14  0.1956058E+00    0.000
    1419.500  0.7205760E+14  0.1956682E+00    0.000
    1439.500  0.7206282E+14  0.1956824E+00    0.000
    1459.500  0.7211855E+14  0.1958337E+00    0.000
    1479.500  0.7213957E+14  0.1958908E+00    0.000
    1499.500  0.7220936E+14  0.1960803E+00    0.000
    1519.500  0.7222197E+14  0.1961145E+00    0.000
    1539.500  0.7224365E+14  0.1961734E+00    0.000
    1559.500  0.7225917E+14  0.1962155E+00    0.000
    1579.500  0.7229693E+14  0.1963181E+00    0.000
    1599.500  0.7232495E+14  0.1963942E+00    0.000
    1619.500  0.7234090E+14  0.1964375E+00    0.000
    1639.500  0.7235983E+14  0.1964889E+00    0.000
    1659.500  0.7240952E+14  0.1966238E+00    0.000
    1679.500  0.7244919E+14  0.1967315E+00    0.000
    1699.500  0.7246755E+14  0.1967814E+00    0.000
    1719.500  0.7247807E+14  0.1968099E+00    0.000
    1739.500  0.7249760E+14  0.1968630E+00    0.000
    1759.500  0.7252261E+14  0.1969309E+00    0.000
    1779.500  0.7254321E+14  0.1969868E+00    0.000
    1799.500  0.7256395E+14  0.1970431E+00    0.000
    1819.500  0.7258305E+14  0.1970950E+00    0.000
    1839.500  0.7259941E+14  0.1971394E+00    0.000
    1859.500  0.7261952E+14  0.1971940E+00    0.000
    1879.500  0.7263512E+14  0.1972364E+00    0.000
    1899.500  0.7265211E+14  0.1972826E+00    0.000
    1919.500  0.7266989E+14  0.1973308E+00    0.000
    1939.500  0.7268629E+14  0.1973753E+00    0.000
    1959.500  0.7269988E+14  0.1974123E+00    0.000
    1979.500  0.7271531E+14  0.1974542E+00    0.000
    1999.500  0.7272931E+14  0.1974922E+00    0.000
    2049.500  0.7276559E+14  0.1975907E+00    0.000
    2099.500  0.7279995E+14  0.1976840E+00    0.000
    2149.500  0.7283369E+14  0.1977756E+00    0.000
    2199.500  0.7286893E+14  0.1978713E+00    0.000
    2249.500  0.7290212E+14  0.1979614E+00    0.000
    2299.500  0.7293348E+14  0.1980466E+00    0.000
    2349.500  0.7296435E+14  0.1981304E+00    0.000
    2399.500  0.7299237E+14  0.1982065E+00    0.000
    2449.500  0.7302334E+14  0.1982906E+00    0.000
    2499.500  0.7305198E+14  0.1983684E+00    0.000
    2549.500  0.7307750E+14  0.1984377E+00    0.000
    2599.500  0.7310190E+14  0.1985039E+00    0.000
    2649.500  0.7313424E+14  0.1985917E+00    0.000
    2699.500  0.7316751E+14  0.1986821E+00    0.000
    2749.500  0.7319861E+14  0.1987665E+00    0.000
    2799.500  0.7323100E+14  0.1988545E+00    0.000
    2849.500  0.7325903E+14  0.1989306E+00    0.000
    2899.500  0.7329005E+14  0.1990148E+00    0.000
    2949.500  0.7331989E+14  0.1990959E+00    0.000
    2999.500  0.7334988E+14  0.1991773E+00    0.000
    3049.500  0.7337798E+14  0.1992536E+00    0.000
    3099.500  0.7340816E+14  0.1993355E+00    0.000
    3149.500  0.7343790E+14  0.1994163E+00    0.000
    3199.500  0.7346721E+14  0.1994959E+00    0.000
    3249.500  0.7349825E+14  0.1995802E+00    0.000
    3299.500  0.7352868E+14  0.1996628E+00    0.000
    3349.500  0.7355917E+14  0.1997456E+00    0.000
    3399.500  0.7358949E+14  0.1998279E+00    0.000
    3449.500  0.7362038E+14  0.1999118E+00    0.000
    3499.500  0.7365096E+14  0.1999949E+00    0.000
    3549.500  0.7368254E+14  0.2000806E+00    0.000
    3599.500  0.7371451E+14  0.2001674E+00    0.000
    3649.500  0.7374599E+14  0.2002529E+00    0.000
    3699.500  0.7377806E+14  0.2003400E+00    0.000
    3749.500  0.7381002E+14  0.2004268E+00    0.000
    3799.500  0.7384164E+14  0.2005127E+00    0.000
    3849.500  0.7387404E+14  0.2006006E+00    0.000
    3899.500  0.7390584E+14  0.2006870E+00    0.000
    3949.500  0.7393823E+14  0.2007749E+00    0.000
    3999.500  0.7396966E+14  0.2008603E+00    0.000
    4049.500  0.7400143E+14  0.2009465E+00    0.000
    4099.500  0.7403303E+14  0.2010323E+00    0.000
    4149.500  0.7406438E+14  0.2011175E+00    0.000
    4199.500  0.7409562E+14  0.2012023E+00    0.000
    4249.500  0.7412639E+14  0.2012859E+00    0.000
    4299.500  0.7415700E+14  0.2013690E+00    0.000
    4349.500  0.7418686E+14  0.2014501E+00    0.000
    4399.500  0.7421623E+14  0.2015298E+00    0.000
    4449.500  0.7424540E+14  0.2016090E+00    0.000
    4499.500  0.7427399E+14  0.2016867E+00    0.000
    4549.500  0.7430125E+14  0.2017607E+00    0.000
    4599.500  0.7432855E+14  0.2018348E+00    0.000
    4649.500  0.7435409E+14  0.2019042E+00    0.000
    4699.500  0.7437963E+14  0.2019735E+00    0.000
    4749.500  0.7440327E+14  0.2020377E+00    0.000
    4799.500  0.7442662E+14  0.2021011E+00    0.000
    4849.500  0.7444902E+14  0.2021620E+00    0.000
    4899.500  0.7447003E+14  0.2022190E+00    0.000
    4949.500  0.7449024E+14  0.2022739E+00    0.000
    4999.500  0.7450913E+14  0.2023252E+00    0.000
    5049.500  0.7452752E+14  0.2023751E+00    0.000
    5099.500  0.7454442E+14  0.2024210E+00    0.000
    5149.500  0.7456050E+14  0.2024647E+00    0.000
    5199.500  0.7457551E+14  0.2025054E+00    0.000
    5249.500  0.7458952E+14  0.2025435E+00    0.000
    5299.500  0.7460261E+14  0.2025790E+00    0.000
    5349.500  0.7461484E+14  0.2026122E+00    0.000
    5399.500  0.7462631E+14  0.2026434E+00    0.000
    5449.500  0.7463672E+14  0.2026716E+00    0.000
    5499.500  0.7464628E+14  0.2026976E+00    0.000
    5549.500  0.7465533E+14  0.2027222E+00    0.000
    5599.500  0.7466313E+14  0.2027433E+00    0.000
    5649.500  0.7467116E+14  0.2027652E+00    0.000
    5699.500  0.7467757E+14  0.2027826E+00    0.000
    5749.500  0.7468390E+14  0.2027997E+00    0.000
    5799.500  0.7468969E+14  0.2028155E+00    0.000
    5849.500  0.7469453E+14  0.2028286E+00    0.000
    5899.500  0.7469945E+14  0.2028420E+00    0.000
    5949.500  0.7470347E+14  0.2028529E+00    0.000
    5999.500  0.7470698E+14  0.2028624E+00    0.000
    6049.500  0.7471005E+14  0.2028708E+00    0.000
    6099.500  0.7471337E+14  0.2028798E+00    0.000
    6149.500  0.7471569E+14  0.2028861E+00    0.000
    6199.500  0.7471783E+14  0.2028919E+00    0.000
    6249.500  0.7472010E+14  0.2028980E+00    0.000
    6299.500  0.7472196E+14  0.2029031E+00    0.000
    6349.500  0.7472289E+14  0.2029056E+00    0.000
    6399.500  0.7472434E+14  0.2029096E+00    0.000
    6449.500  0.7472595E+14  0.2029139E+00    0.000
    6499.500  0.7472641E+14  0.2029152E+00    0.000
    6549.500  0.7472707E+14  0.2029170E+00    0.000
    6599.500  0.7472826E+14  0.2029202E+00    0.000
