 % time (yr) / mean (land) surface air temperature (degrees C)
       0.500   -3.611543
       1.500   -2.387998
       2.500   -1.450915
       3.500   -0.851759
       4.500   -0.408018
       5.500   -0.027032
       6.500    0.282676
       7.500    0.553435
       8.500    0.814930
       9.500    1.061113
      10.500    1.289161
      11.500    1.500475
      12.500    1.696532
      13.500    1.885159
      14.500    2.063657
      15.500    2.232550
      16.500    2.393231
      17.500    2.544562
      18.500    2.689127
      19.500    2.828474
      21.500    3.089736
      23.500    3.333566
      25.500    3.560689
      27.500    3.770894
      29.500    3.966866
      31.500    4.149621
      33.500    4.323530
      35.500    4.486744
      37.500    4.635458
      39.500    4.770727
      41.500    4.896306
      43.500    5.013188
      45.500    5.119197
      47.500    5.218486
      49.500    5.310973
      51.500    5.398707
      53.500    5.482394
      55.500    5.559725
      57.500    5.631885
      59.500    5.700390
      61.500    5.765334
      63.500    5.829681
      65.500    5.889569
      67.500    5.948572
      69.500    6.006038
      71.500    6.060595
      73.500    6.113028
      75.500    6.164087
      77.500    6.210979
      79.500    6.256513
      81.500    6.299627
      83.500    6.341993
      85.500    6.383431
      87.500    6.422755
      89.500    6.459923
      91.500    6.496859
      93.500    6.535553
      95.500    6.571642
      97.500    6.605444
      99.500    6.640472
     104.500    6.719805
     109.500    6.792528
     114.500    6.855800
     119.500    6.915308
     124.500    6.969787
     129.500    7.022482
     134.500    7.070838
     139.500    7.117144
     144.500    7.159370
     149.500    7.198139
     154.500    7.234456
     159.500    7.267497
     164.500    7.298313
     169.500    7.329272
     174.500    7.357631
     179.500    7.382237
     184.500    7.406761
     189.500    7.430424
     194.500    7.452435
     199.500    7.472581
     204.500    7.493237
     209.500    7.511173
     214.500    7.528949
     219.500    7.544715
     224.500    7.560377
     229.500    7.574817
     234.500    7.587489
     239.500    7.599838
     244.500    7.613089
     249.500    7.625048
     254.500    7.634507
     259.500    7.642385
     264.500    7.651468
     269.500    7.659755
     274.500    7.667048
     279.500    7.675039
     284.500    7.682511
     289.500    7.688926
     294.500    7.694254
     299.500    7.699584
     304.500    7.705223
     309.500    7.710448
     314.500    7.714050
     319.500    7.719243
     324.500    7.722337
     329.500    7.726662
     334.500    7.729978
     339.500    7.734439
     344.500    7.739715
     349.500    7.742810
     354.500    7.746457
     359.500    7.750388
     364.500    7.753632
     369.500    7.757046
     374.500    7.759625
     379.500    7.763958
     384.500    7.767185
     389.500    7.769958
     394.500    7.773661
     399.500    7.776421
     404.500    7.779377
     409.500    7.784918
     414.500    7.787282
     419.500    7.790414
     424.500    7.793257
     429.500    7.796603
     434.500    7.799009
     439.500    7.802284
     444.500    7.804258
     449.500    7.807947
     454.500    7.811280
     459.500    7.814048
     464.500    7.817817
     469.500    7.820006
     474.500    7.823260
     479.500    7.826486
     484.500    7.829378
     489.500    7.833040
     494.500    7.834526
     499.500    7.837614
     504.500    7.839854
     509.500    7.842313
     514.500    7.844663
     519.500    7.846708
     524.500    7.849289
     529.500    7.851278
     534.500    7.853884
     539.500    7.856244
     544.500    7.858617
     549.500    7.860826
     554.500    7.863234
     559.500    7.865745
     564.500    7.868057
     569.500    7.870508
     574.500    7.873208
     579.500    7.875540
     584.500    7.877780
     589.500    7.879871
     594.500    7.882255
     599.500    7.883811
     604.500    7.885698
     609.500    7.887959
     614.500    7.890280
     619.500    7.891642
     624.500    7.893520
     629.500    7.895252
     634.500    7.897075
     639.500    7.899346
     644.500    7.901281
     649.500    7.903159
     654.500    7.905295
     659.500    7.907617
     664.500    7.910346
     669.500    7.911871
     674.500    7.913629
     679.500    7.915882
     684.500    7.917356
     689.500    7.919447
     694.500    7.921636
     699.500    7.923816
     704.500    7.926380
     709.500    7.927908
     714.500    7.930293
     719.500    7.931365
     724.500    7.933612
     729.500    7.935375
     734.500    7.937111
     739.500    7.938941
     744.500    7.940784
     749.500    7.942930
     754.500    7.944721
     759.500    7.946190
     764.500    7.947791
     769.500    7.949442
     774.500    7.951261
     779.500    7.952761
     784.500    7.954016
     789.500    7.955687
     794.500    7.957364
     799.500    7.958899
     804.500    7.960554
     809.500    7.961637
     814.500    7.963908
     819.500    7.965349
     824.500    7.967168
     829.500    7.968728
     834.500    7.969836
     839.500    7.971360
     844.500    7.972812
     849.500    7.974126
     854.500    7.975732
     859.500    7.976723
     864.500    7.977933
     869.500    7.979112
     874.500    7.981364
     879.500    7.982400
     884.500    7.983939
     889.500    7.985790
     894.500    7.987149
     899.500    7.988179
     904.500    7.989630
     909.500    7.990862
     914.500    7.992238
     919.500    7.993265
     924.500    7.994414
     929.500    7.995235
     934.500    7.997118
     939.500    7.999334
     944.500    8.000502
     949.500    8.001661
     954.500    8.002869
     959.500    8.004467
     964.500    8.005574
     969.500    8.007195
     974.500    8.007359
     979.500    8.009270
     984.500    8.009363
     989.500    8.011279
     994.500    8.011933
     999.500    8.013313
    1019.500    8.017503
    1039.500    8.021340
    1059.500    8.025166
    1079.500    8.029552
    1099.500    8.034153
    1119.500    8.038240
    1139.500    8.041668
    1159.500    8.044439
    1179.500    8.047122
    1199.500    8.051157
    1219.500    8.055267
    1239.500    8.058843
    1259.500    8.061275
    1279.500    8.063375
    1299.500    8.065631
    1319.500    8.067669
    1339.500    8.069922
    1359.500    8.071794
    1379.500    8.073863
    1399.500    8.076801
    1419.500    8.079120
    1439.500    8.081342
    1459.500    8.082982
    1479.500    8.084022
    1499.500    8.086173
    1519.500    8.087614
    1539.500    8.089366
    1559.500    8.090921
    1579.500    8.092190
    1599.500    8.094251
    1619.500    8.094670
    1639.500    8.096924
    1659.500    8.097732
    1679.500    8.096833
    1699.500    8.098282
    1719.500    8.100222
    1739.500    8.101483
    1759.500    8.101846
    1779.500    8.102508
    1799.500    8.103317
    1819.500    8.104242
    1839.500    8.105163
    1859.500    8.105923
    1879.500    8.106367
    1899.500    8.106522
    1919.500    8.107266
    1939.500    8.107681
    1959.500    8.108569
    1979.500    8.109319
    1999.500    8.110014
    2049.500    8.111168
    2099.500    8.112566
    2149.500    8.113569
    2199.500    8.114432
    2249.500    8.115177
    2299.500    8.115846
    2349.500    8.116932
    2399.500    8.117259
    2449.500    8.117972
    2499.500    8.118762
    2549.500    8.119425
    2599.500    8.118635
    2649.500    8.119735
    2699.500    8.120554
    2749.500    8.119889
    2799.500    8.120190
    2849.500    8.120338
    2899.500    8.120469
    2949.500    8.120637
    2999.500    8.120928
    3049.500    8.121181
    3099.500    8.121415
    3149.500    8.121639
    3199.500    8.121723
    3249.500    8.121801
    3299.500    8.121903
    3349.500    8.122002
    3399.500    8.122075
    3449.500    8.122183
    3499.500    8.122341
    3549.500    8.122396
    3599.500    8.122508
    3649.500    8.122540
    3699.500    8.122583
    3749.500    8.122624
    3799.500    8.122718
    3849.500    8.122691
    3899.500    8.122672
    3949.500    8.122807
    3999.500    8.122868
    4049.500    8.122899
    4099.500    8.122940
    4149.500    8.122973
    4199.500    8.123010
    4249.500    8.123022
    4299.500    8.123049
    4349.500    8.123062
    4399.500    8.123032
    4449.500    8.123092
    4499.500    8.123067
    4549.500    8.123049
    4599.500    8.123028
    4649.500    8.123066
    4699.500    8.123058
    4749.500    8.123064
    4799.500    8.123071
    4849.500    8.123096
    4899.500    8.123101
    4949.500    8.123094
    4999.500    8.123144
    5049.500    8.123131
    5099.500    8.123135
    5149.500    8.123134
    5199.500    8.123131
    5249.500    8.123130
    5299.500    8.123132
    5349.500    8.123129
    5399.500    8.123129
    5449.500    8.123123
    5499.500    8.123122
    5549.500    8.123122
    5599.500    8.123119
    5649.500    8.123128
    5699.500    8.123114
    5749.500    8.123123
    5799.500    8.123119
    5849.500    8.123106
    5899.500    8.123114
    5949.500    8.123098
    5999.500    8.123093
    6049.500    8.123108
    6099.500    8.123088
    6149.500    8.123085
    6199.500    8.123095
    6249.500    8.123079
    6299.500    8.123079
    6349.500    8.123077
    6399.500    8.123072
    6449.500    8.123084
    6499.500    8.123067
    6549.500    8.123068
    6599.500    8.123079
    6649.500    8.123072
    6699.500    8.123078
    6749.500    8.123059
    6799.500    8.123059
    6849.500    8.123057
    6899.500    8.123063
    6949.500    8.123071
    6999.500    8.123065
    7049.500    8.123067
    7099.500    8.123056
    7149.500    8.123055
    7199.500    8.123066
    7249.500    8.123054
    7299.500    8.123053
    7349.500    8.123067
    7399.500    8.123051
    7449.500    8.123072
    7499.500    8.123057
    7549.500    8.123059
    7599.500    8.123048
    7649.500    8.123044
    7699.500    8.123046
    7749.500    8.123055
    7799.500    8.123051
    7849.500    8.123056
    7899.500    8.123054
    7949.500    8.123046
    7999.500    8.123041
    8049.500    8.123048
    8099.500    8.123041
    8149.500    8.123048
    8199.500    8.123038
    8249.500    8.123053
    8299.500    8.123062
    8349.500    8.123054
    8399.500    8.123045
    8449.500    8.123053
    8499.500    8.123056
    8549.500    8.123035
    8599.500    8.123052
    8649.500    8.123056
    8699.500    8.123050
    8749.500    8.123058
    8799.500    8.123039
    8849.500    8.123042
    8899.500    8.123051
    8949.500    8.123049
    8999.500    8.123053
    9049.500    8.123037
    9099.500    8.123043
    9149.500    8.123041
    9199.500    8.123043
    9249.500    8.123054
    9299.500    8.123052
    9349.500    8.123044
    9399.500    8.123033
    9449.500    8.123056
    9499.500    8.123050
    9549.500    8.123044
    9599.500    8.123050
    9649.500    8.123033
    9699.500    8.123049
    9749.500    8.123050
    9799.500    8.123044
    9849.500    8.123053
    9899.500    8.123055
    9949.500    8.123037
    9999.500    8.123051
