 % time (yr) / global POC_13C flux (mol yr-1) / global POC_13C delta (o/oo)
       0.500  0.2174504E+14       -26.610
       1.500  0.2144444E+14       -23.791
       2.500  0.2025689E+14       -23.338
       3.500  0.1939901E+14       -23.230
       4.500  0.1865123E+14       -23.157
       5.500  0.1796793E+14       -23.160
       6.500  0.1729405E+14       -23.146
       7.500  0.1669322E+14       -23.170
       8.500  0.1615853E+14       -23.168
       9.500  0.1564277E+14       -23.157
      10.500  0.1523658E+14       -23.165
      11.500  0.1485434E+14       -23.186
      12.500  0.1449037E+14       -23.195
      13.500  0.1416529E+14       -23.190
      14.500  0.1387038E+14       -23.209
      15.500  0.1360588E+14       -23.204
      16.500  0.1336988E+14       -23.205
      17.500  0.1315542E+14       -23.208
      18.500  0.1294809E+14       -23.198
      19.500  0.1275633E+14       -23.201
      21.500  0.1241307E+14       -23.176
      23.500  0.1211847E+14       -23.166
      25.500  0.1186592E+14       -23.153
      27.500  0.1164718E+14       -23.131
      29.500  0.1146846E+14       -23.122
      31.500  0.1130052E+14       -23.102
      33.500  0.1114832E+14       -23.075
      35.500  0.1102147E+14       -23.079
      37.500  0.1090442E+14       -23.062
      39.500  0.1080554E+14       -23.042
      41.500  0.1070504E+14       -23.045
      43.500  0.1061290E+14       -23.042
      45.500  0.1054670E+14       -23.038
      47.500  0.1046883E+14       -23.027
      49.500  0.1040216E+14       -23.038
      51.500  0.1034600E+14       -23.041
      53.500  0.1028928E+14       -23.035
      55.500  0.1023307E+14       -23.039
      57.500  0.1017301E+14       -23.045
      59.500  0.1011920E+14       -23.014
      61.500  0.1007272E+14       -23.023
      63.500  0.1005948E+14       -23.055
      65.500  0.1000716E+14       -23.046
      67.500  0.9951136E+13       -23.024
      69.500  0.9915888E+13       -23.041
      71.500  0.9898679E+13       -23.066
      73.500  0.9877810E+13       -23.076
      75.500  0.9834083E+13       -23.054
      77.500  0.9804930E+13       -23.067
      79.500  0.9779707E+13       -23.070
      81.500  0.9766738E+13       -23.070
      83.500  0.9746634E+13       -23.066
      85.500  0.9733870E+13       -23.086
      87.500  0.9698040E+13       -23.054
      89.500  0.9672156E+13       -23.055
      91.500  0.9659142E+13       -23.058
      93.500  0.9646213E+13       -23.071
      95.500  0.9621795E+13       -23.049
      97.500  0.9606694E+13       -23.049
      99.500  0.9587241E+13       -23.057
     104.500  0.9567931E+13       -23.041
     109.500  0.9532617E+13       -23.033
     114.500  0.9506134E+13       -23.026
     119.500  0.9505489E+13       -23.055
     124.500  0.9478808E+13       -23.034
     129.500  0.9475339E+13       -23.039
     134.500  0.9449911E+13       -22.994
     139.500  0.9441829E+13       -22.998
     144.500  0.9430036E+13       -23.006
     149.500  0.9425423E+13       -22.986
     154.500  0.9417291E+13       -22.981
     159.500  0.9411481E+13       -22.983
     164.500  0.9404936E+13       -22.981
     169.500  0.9402229E+13       -22.977
     174.500  0.9408809E+13       -22.979
     179.500  0.9406452E+13       -22.966
     184.500  0.9406680E+13       -22.962
     189.500  0.9408282E+13       -22.953
     194.500  0.9405141E+13       -22.939
     199.500  0.9408069E+13       -22.945
     204.500  0.9413554E+13       -22.956
     209.500  0.9416742E+13       -22.962
     214.500  0.9423905E+13       -22.971
     219.500  0.9426500E+13       -22.960
     224.500  0.9429642E+13       -22.952
     229.500  0.9436114E+13       -22.948
     234.500  0.9436811E+13       -22.947
     239.500  0.9443407E+13       -22.947
     244.500  0.9443832E+13       -22.934
     249.500  0.9444686E+13       -22.926
     254.500  0.9448998E+13       -22.924
     259.500  0.9456929E+13       -22.923
     264.500  0.9461938E+13       -22.929
     269.500  0.9468818E+13       -22.926
     274.500  0.9477948E+13       -22.930
     279.500  0.9484623E+13       -22.936
     284.500  0.9487177E+13       -22.934
     289.500  0.9493678E+13       -22.931
     294.500  0.9504463E+13       -22.936
     299.500  0.9515435E+13       -22.945
     304.500  0.9517693E+13       -22.941
     309.500  0.9522327E+13       -22.941
     314.500  0.9530936E+13       -22.947
     319.500  0.9536903E+13       -22.956
     324.500  0.9538835E+13       -22.955
     329.500  0.9539623E+13       -22.951
     334.500  0.9538160E+13       -22.946
     339.500  0.9541172E+13       -22.943
     344.500  0.9543959E+13       -22.942
     349.500  0.9545131E+13       -22.953
     354.500  0.9550467E+13       -22.960
     359.500  0.9553622E+13       -22.963
     364.500  0.9557106E+13       -22.964
     369.500  0.9556807E+13       -22.958
     374.500  0.9557078E+13       -22.957
     379.500  0.9556417E+13       -22.959
     384.500  0.9556341E+13       -22.957
     389.500  0.9556285E+13       -22.949
     394.500  0.9562252E+13       -22.947
     399.500  0.9564458E+13       -22.949
     404.500  0.9564357E+13       -22.953
     409.500  0.9563305E+13       -22.950
     414.500  0.9563320E+13       -22.942
     419.500  0.9568380E+13       -22.952
     424.500  0.9570204E+13       -22.952
     429.500  0.9570038E+13       -22.952
     434.500  0.9567740E+13       -22.942
     439.500  0.9567241E+13       -22.947
     444.500  0.9567842E+13       -22.938
     449.500  0.9567723E+13       -22.934
     454.500  0.9565165E+13       -22.928
     459.500  0.9567898E+13       -22.926
     464.500  0.9567685E+13       -22.917
     469.500  0.9567187E+13       -22.909
     474.500  0.9570444E+13       -22.922
     479.500  0.9567585E+13       -22.921
     484.500  0.9576194E+13       -22.933
     489.500  0.9572769E+13       -22.926
     494.500  0.9579725E+13       -22.937
     499.500  0.9574807E+13       -22.920
     504.500  0.9585457E+13       -22.929
     509.500  0.9578344E+13       -22.920
     514.500  0.9585730E+13       -22.924
     519.500  0.9581682E+13       -22.916
     524.500  0.9592640E+13       -22.923
     529.500  0.9585325E+13       -22.919
     534.500  0.9591415E+13       -22.915
     539.500  0.9586983E+13       -22.909
     544.500  0.9596524E+13       -22.914
     549.500  0.9591720E+13       -22.911
     554.500  0.9602346E+13       -22.917
     559.500  0.9603877E+13       -22.918
     564.500  0.9609001E+13       -22.916
     569.500  0.9604088E+13       -22.910
     574.500  0.9607631E+13       -22.910
     579.500  0.9612544E+13       -22.921
     584.500  0.9617041E+13       -22.920
     589.500  0.9612208E+13       -22.921
     594.500  0.9619342E+13       -22.917
     599.500  0.9620858E+13       -22.917
     604.500  0.9622638E+13       -22.912
     609.500  0.9621771E+13       -22.900
     614.500  0.9625933E+13       -22.905
     619.500  0.9628118E+13       -22.912
     624.500  0.9632981E+13       -22.916
     629.500  0.9634909E+13       -22.912
     634.500  0.9638615E+13       -22.915
     639.500  0.9636694E+13       -22.913
     644.500  0.9639495E+13       -22.904
     649.500  0.9641173E+13       -22.906
     654.500  0.9643265E+13       -22.906
     659.500  0.9643913E+13       -22.910
     664.500  0.9643913E+13       -22.909
     669.500  0.9645056E+13       -22.910
     674.500  0.9647696E+13       -22.908
     679.500  0.9654718E+13       -22.918
     684.500  0.9663401E+13       -22.921
     689.500  0.9660780E+13       -22.901
     694.500  0.9669030E+13       -22.916
     699.500  0.9664260E+13       -22.919
     704.500  0.9676653E+13       -22.928
     709.500  0.9670633E+13       -22.925
     714.500  0.9680717E+13       -22.928
     719.500  0.9676400E+13       -22.921
     724.500  0.9680058E+13       -22.914
     729.500  0.9682419E+13       -22.918
     734.500  0.9685259E+13       -22.921
     739.500  0.9688218E+13       -22.924
     744.500  0.9688413E+13       -22.917
     749.500  0.9690349E+13       -22.919
     754.500  0.9690709E+13       -22.915
     759.500  0.9692675E+13       -22.916
     764.500  0.9696526E+13       -22.921
     769.500  0.9698505E+13       -22.914
     774.500  0.9701893E+13       -22.919
     779.500  0.9704333E+13       -22.920
     784.500  0.9704108E+13       -22.914
     789.500  0.9701924E+13       -22.900
     794.500  0.9709216E+13       -22.905
     799.500  0.9703200E+13       -22.904
     804.500  0.9712860E+13       -22.901
     809.500  0.9704047E+13       -22.902
     814.500  0.9710373E+13       -22.909
     819.500  0.9712848E+13       -22.912
     824.500  0.9714037E+13       -22.905
     829.500  0.9715741E+13       -22.908
     834.500  0.9718155E+13       -22.900
     839.500  0.9724168E+13       -22.912
     844.500  0.9724252E+13       -22.908
     849.500  0.9727155E+13       -22.912
     854.500  0.9729107E+13       -22.910
     859.500  0.9729073E+13       -22.902
     864.500  0.9728191E+13       -22.887
     869.500  0.9730652E+13       -22.891
     874.500  0.9733021E+13       -22.892
     879.500  0.9733991E+13       -22.889
     884.500  0.9737627E+13       -22.896
     889.500  0.9738157E+13       -22.893
     894.500  0.9740400E+13       -22.894
     899.500  0.9743811E+13       -22.893
     904.500  0.9743340E+13       -22.890
     909.500  0.9750033E+13       -22.898
     914.500  0.9747946E+13       -22.884
     919.500  0.9750659E+13       -22.882
     924.500  0.9747954E+13       -22.876
     929.500  0.9753504E+13       -22.878
     934.500  0.9757754E+13       -22.877
     939.500  0.9759034E+13       -22.873
     944.500  0.9760616E+13       -22.874
     949.500  0.9761785E+13       -22.870
     954.500  0.9766815E+13       -22.864
     959.500  0.9769749E+13       -22.867
     964.500  0.9771199E+13       -22.865
     969.500  0.9769833E+13       -22.863
     974.500  0.9774290E+13       -22.858
     979.500  0.9776605E+13       -22.867
     984.500  0.9778433E+13       -22.866
     989.500  0.9778216E+13       -22.883
     994.500  0.9786590E+13       -22.876
     999.500  0.9781678E+13       -22.881
    1019.500  0.9792760E+13       -22.879
    1039.500  0.9801865E+13       -22.878
    1059.500  0.9807864E+13       -22.869
    1079.500  0.9816945E+13       -22.883
    1099.500  0.9825274E+13       -22.884
    1119.500  0.9825116E+13       -22.882
    1139.500  0.9831955E+13       -22.882
    1159.500  0.9842577E+13       -22.880
    1179.500  0.9848027E+13       -22.873
    1199.500  0.9865201E+13       -22.889
    1219.500  0.9870935E+13       -22.903
    1239.500  0.9877556E+13       -22.898
    1259.500  0.9875162E+13       -22.888
    1279.500  0.9881078E+13       -22.891
    1299.500  0.9888994E+13       -22.899
    1319.500  0.9890291E+13       -22.886
    1339.500  0.9908294E+13       -22.887
    1359.500  0.9909916E+13       -22.882
    1379.500  0.9911706E+13       -22.885
    1399.500  0.9928091E+13       -22.882
    1419.500  0.9930697E+13       -22.884
    1439.500  0.9928885E+13       -22.875
    1459.500  0.9939122E+13       -22.871
    1479.500  0.9943324E+13       -22.877
    1499.500  0.9956411E+13       -22.873
    1519.500  0.9955704E+13       -22.862
    1539.500  0.9956739E+13       -22.846
    1559.500  0.9958229E+13       -22.842
    1579.500  0.9966089E+13       -22.847
    1599.500  0.9971243E+13       -22.857
    1619.500  0.9972306E+13       -22.847
    1639.500  0.9974304E+13       -22.842
    1659.500  0.9984267E+13       -22.843
    1679.500  0.9990535E+13       -22.840
    1699.500  0.9992494E+13       -22.838
    1719.500  0.9993402E+13       -22.835
    1739.500  0.9998424E+13       -22.846
    1759.500  0.1000318E+14       -22.848
    1779.500  0.1000607E+14       -22.847
    1799.500  0.1000921E+14       -22.847
    1819.500  0.1001216E+14       -22.847
    1839.500  0.1001515E+14       -22.850
    1859.500  0.1001811E+14       -22.846
    1879.500  0.1002062E+14       -22.845
    1899.500  0.1002326E+14       -22.846
    1919.500  0.1002616E+14       -22.845
    1939.500  0.1002855E+14       -22.843
    1959.500  0.1002999E+14       -22.837
    1979.500  0.1003134E+14       -22.831
    1999.500  0.1003470E+14       -22.837
    2049.500  0.1004043E+14       -22.838
    2099.500  0.1004573E+14       -22.840
    2149.500  0.1004862E+14       -22.830
    2199.500  0.1005359E+14       -22.831
    2249.500  0.1005816E+14       -22.831
    2299.500  0.1006241E+14       -22.830
    2349.500  0.1006629E+14       -22.830
    2399.500  0.1006997E+14       -22.831
    2449.500  0.1007372E+14       -22.832
    2499.500  0.1007708E+14       -22.830
    2549.500  0.1007997E+14       -22.830
    2599.500  0.1008319E+14       -22.832
    2649.500  0.1008688E+14       -22.834
    2699.500  0.1009050E+14       -22.835
    2749.500  0.1009516E+14       -22.837
    2799.500  0.1009861E+14       -22.834
    2849.500  0.1010140E+14       -22.834
    2899.500  0.1010476E+14       -22.833
    2949.500  0.1010774E+14       -22.833
    2999.500  0.1011085E+14       -22.831
    3049.500  0.1011342E+14       -22.832
    3099.500  0.1011640E+14       -22.831
    3149.500  0.1011919E+14       -22.831
    3199.500  0.1012196E+14       -22.831
    3249.500  0.1012510E+14       -22.831
    3299.500  0.1012785E+14       -22.831
    3349.500  0.1013078E+14       -22.830
    3399.500  0.1013341E+14       -22.830
    3449.500  0.1013624E+14       -22.830
    3499.500  0.1013896E+14       -22.829
    3549.500  0.1014190E+14       -22.829
    3599.500  0.1014484E+14       -22.829
    3649.500  0.1014754E+14       -22.828
    3699.500  0.1015046E+14       -22.827
    3749.500  0.1015334E+14       -22.826
    3799.500  0.1015612E+14       -22.826
    3849.500  0.1015917E+14       -22.825
    3899.500  0.1016195E+14       -22.825
    3949.500  0.1016481E+14       -22.824
    3999.500  0.1016754E+14       -22.824
    4049.500  0.1017027E+14       -22.823
    4099.500  0.1017304E+14       -22.823
    4149.500  0.1017574E+14       -22.822
    4199.500  0.1017844E+14       -22.822
    4249.500  0.1018110E+14       -22.821
    4299.500  0.1018374E+14       -22.820
    4349.500  0.1018630E+14       -22.820
    4399.500  0.1018878E+14       -22.819
    4449.500  0.1019129E+14       -22.819
    4499.500  0.1019375E+14       -22.819
    4549.500  0.1019608E+14       -22.818
    4599.500  0.1019851E+14       -22.817
    4649.500  0.1020066E+14       -22.817
    4699.500  0.1020284E+14       -22.817
    4749.500  0.1020483E+14       -22.816
    4799.500  0.1020682E+14       -22.816
    4849.500  0.1020874E+14       -22.815
    4899.500  0.1021052E+14       -22.815
    4949.500  0.1021222E+14       -22.814
    4999.500  0.1021383E+14       -22.814
    5049.500  0.1021536E+14       -22.813
    5099.500  0.1021676E+14       -22.813
    5149.500  0.1021811E+14       -22.813
    5199.500  0.1021938E+14       -22.812
    5249.500  0.1022054E+14       -22.812
    5299.500  0.1022162E+14       -22.811
    5349.500  0.1022264E+14       -22.811
    5399.500  0.1022359E+14       -22.811
    5449.500  0.1022445E+14       -22.810
    5499.500  0.1022523E+14       -22.810
    5549.500  0.1022598E+14       -22.810
    5599.500  0.1022661E+14       -22.810
    5649.500  0.1022728E+14       -22.809
    5699.500  0.1022779E+14       -22.809
    5749.500  0.1022830E+14       -22.809
    5799.500  0.1022878E+14       -22.808
    5849.500  0.1022916E+14       -22.808
    5899.500  0.1022956E+14       -22.808
    5949.500  0.1022988E+14       -22.808
    5999.500  0.1023015E+14       -22.808
    6049.500  0.1023037E+14       -22.807
    6099.500  0.1023064E+14       -22.807
    6149.500  0.1023081E+14       -22.807
    6199.500  0.1023097E+14       -22.807
    6249.500  0.1023115E+14       -22.807
    6299.500  0.1023128E+14       -22.806
    6349.500  0.1023134E+14       -22.806
    6399.500  0.1023144E+14       -22.806
    6449.500  0.1023156E+14       -22.806
    6499.500  0.1023157E+14       -22.806
    6549.500  0.1023161E+14       -22.806
    6599.500  0.1023170E+14       -22.805
    6649.500  0.1023176E+14       -22.806
    6699.500  0.1023171E+14       -22.805
    6749.500  0.1023177E+14       -22.805
    6799.500  0.1023174E+14       -22.805
    6849.500  0.1023171E+14       -22.805
    6899.500  0.1023177E+14       -22.805
    6949.500  0.1023170E+14       -22.805
    6999.500  0.1023170E+14       -22.805
    7049.500  0.1023164E+14       -22.805
    7099.500  0.1023167E+14       -22.805
    7149.500  0.1023161E+14       -22.804
    7199.500  0.1023158E+14       -22.804
    7249.500  0.1023161E+14       -22.804
    7299.500  0.1023155E+14       -22.804
    7349.500  0.1023156E+14       -22.804
    7399.500  0.1023150E+14       -22.804
    7449.500  0.1023154E+14       -22.804
    7499.500  0.1023144E+14       -22.804
    7549.500  0.1023141E+14       -22.804
    7599.500  0.1023148E+14       -22.804
    7649.500  0.1023136E+14       -22.804
    7699.500  0.1023135E+14       -22.804
    7749.500  0.1023130E+14       -22.804
    7799.500  0.1023134E+14       -22.804
    7849.500  0.1023127E+14       -22.803
    7899.500  0.1023123E+14       -22.803
    7949.500  0.1023125E+14       -22.803
    7999.500  0.1023122E+14       -22.803
    8049.500  0.1023122E+14       -22.803
    8099.500  0.1023120E+14       -22.803
    8149.500  0.1023118E+14       -22.803
    8199.500  0.1023115E+14       -22.803
    8249.500  0.1023106E+14       -22.803
    8299.500  0.1023113E+14       -22.803
    8349.500  0.1023106E+14       -22.803
    8399.500  0.1023109E+14       -22.803
    8449.500  0.1023105E+14       -22.803
    8499.500  0.1023107E+14       -22.803
    8549.500  0.1023103E+14       -22.803
    8599.500  0.1023101E+14       -22.803
    8649.500  0.1023103E+14       -22.803
    8699.500  0.1023098E+14       -22.803
    8749.500  0.1023103E+14       -22.803
    8799.500  0.1023097E+14       -22.803
    8849.500  0.1023098E+14       -22.803
    8899.500  0.1023095E+14       -22.803
    8949.500  0.1023096E+14       -22.803
    8999.500  0.1023102E+14       -22.803
    9049.500  0.1023095E+14       -22.803
    9099.500  0.1023096E+14       -22.803
    9149.500  0.1023096E+14       -22.803
    9199.500  0.1023091E+14       -22.803
    9249.500  0.1023092E+14       -22.802
    9299.500  0.1023094E+14       -22.802
    9349.500  0.1023094E+14       -22.803
    9399.500  0.1023087E+14       -22.802
    9449.500  0.1023091E+14       -22.802
    9499.500  0.1023089E+14       -22.802
    9549.500  0.1023093E+14       -22.803
    9599.500  0.1023089E+14       -22.802
    9649.500  0.1023088E+14       -22.802
    9699.500  0.1023092E+14       -22.802
    9749.500  0.1023089E+14       -22.802
    9799.500  0.1023091E+14       -22.802
    9849.500  0.1023085E+14       -22.802
    9899.500  0.1023092E+14       -22.802
    9949.500  0.1023086E+14       -22.802
    9999.500  0.1023083E+14       -22.802
